1649438306,,,
98,74722.0,252665.0,264880.0
98,74761.0,252726.0,264924.0
98,74801.0,252745.0,264944.0
98,74787.0,252654.0,264851.0
98,74706.0,252366.0,264568.0
98,74654.0,252225.0,264460.0
98,74621.0,252288.0,264547.0
98,74573.0,252258.0,264528.0
98,74528.0,252231.0,264516.0
98,74504.0,252245.0,264521.0
98,74491.0,252267.0,264564.0
98,74478.0,252273.0,264566.0
98,74466.0,252275.0,264584.0
98,74463.0,252291.0,264598.0
98,74462.0,252304.0,264602.0
98,74464.0,252310.0,264627.0
98,74466.0,252318.0,264610.0
98,74472.0,252327.0,264596.0
98,74486.0,252337.0,264600.0
98,74501.0,252357.0,264608.0
98,74522.0,252376.0,264618.0
98,74549.0,252409.0,264624.0
98,74576.0,252431.0,264642.0
98,74601.0,252455.0,264642.0
98,74625.0,252466.0,264632.0
99,74660.0,252494.0,264629.0
99,74681.0,252504.0,264602.0
99,74717.0,252520.0,264602.0
99,74745.0,252530.0,264594.0
99,74750.0,252477.0,264561.0
99,74714.0,252373.0,264460.0
99,74674.0,252284.0,264370.0
99,74632.0,252241.0,264332.0
99,74586.0,252178.0,264311.0
99,74541.0,252131.0,264267.0
99,74496.0,252104.0,264251.0
99,74473.0,252098.0,264251.0
99,74456.0,252089.0,264257.0
99,74445.0,252118.0,264289.0
99,74443.0,252132.0,264327.0
99,74439.0,252175.0,264341.0
99,74436.0,252171.0,264345.0
99,74338.0,251917.0,264000.0
99,73976.0,250473.0,262447.0
99,74008.0,250073.0,262332.0
99,74332.0,251029.0,263474.0
99,74759.0,252437.0,265016.0
99,74958.0,253138.0,265736.0
99,75098.0,253603.0,266194.0
99,75077.0,253609.0,266083.0
100,74922.0,253167.0,265461.0
100,74797.0,252620.0,264822.0
100,74766.0,252482.0,264618.0
100,74783.0,252518.0,264580.0
100,74812.0,252521.0,264625.0
100,74810.0,252575.0,264700.0
100,74836.0,252726.0,264896.0
100,74848.0,252874.0,265075.0
100,74816.0,252871.0,265062.0
100,74736.0,252695.0,264872.0
100,74650.0,252489.0,264646.0
100,74588.0,252339.0,264461.0
100,74560.0,252291.0,264420.0
100,74563.0,252364.0,264512.0
100,74563.0,252429.0,264572.0
100,74540.0,252382.0,264535.0
100,74513.0,252314.0,264418.0
100,74485.0,252225.0,264302.0
100,74460.0,252141.0,264186.0
100,74452.0,252094.0,264111.0
100,74454.0,252079.0,264077.0
100,74446.0,252046.0,264020.0
100,74450.0,251979.0,263970.0
100,74538.0,252170.0,264229.0
100,74666.0,252459.0,264591.0
101,74791.0,252884.0,265050.0
101,74861.0,253142.0,265309.0
101,74887.0,253190.0,265336.0
101,74899.0,253156.0,265326.0
101,74869.0,253090.0,265273.0
101,74822.0,253024.0,265233.0
101,74761.0,252945.0,265162.0
101,74710.0,252896.0,265152.0
101,74669.0,252896.0,265210.0
101,74635.0,252957.0,265326.0
101,74621.0,253069.0,265480.0
101,74643.0,253230.0,265694.0
101,74674.0,253432.0,265945.0
101,74718.0,253643.0,266182.0
101,74748.0,253791.0,266347.0
101,74752.0,253843.0,266414.0
101,74738.0,253805.0,266368.0
101,74659.0,253524.0,266019.0
101,74617.0,253395.0,265851.0
101,74576.0,253242.0,265662.0
101,74551.0,253141.0,265545.0
101,74554.0,253133.0,265494.0
101,74573.0,253156.0,265501.0
101,74591.0,253154.0,265477.0
101,74601.0,253135.0,265450.0
102,74624.0,253139.0,265425.0
102,74643.0,253139.0,265385.0
102,74670.0,253158.0,265369.0
102,74710.0,253177.0,265405.0
102,74732.0,253180.0,265407.0
102,74690.0,253036.0,265260.0
102,74655.0,253008.0,265253.0
102,74618.0,253041.0,265330.0
102,74563.0,253000.0,265333.0
102,74503.0,252975.0,265331.0
102,74455.0,252936.0,265346.0
102,74429.0,252977.0,265418.0
102,74425.0,253041.0,265506.0
102,74438.0,253142.0,265646.0
102,74466.0,253249.0,265795.0
102,74503.0,253423.0,265993.0
102,74559.0,253614.0,266226.0
102,74626.0,253807.0,266452.0
102,74683.0,253957.0,266638.0
102,74729.0,254072.0,266760.0
102,74778.0,254199.0,266892.0
102,74810.0,254236.0,266931.0
102,74853.0,254305.0,267012.0
102,74898.0,254371.0,267072.0
102,74942.0,254410.0,267118.0
103,74982.0,254473.0,267157.0
103,75013.0,254487.0,267158.0
103,75102.0,254649.0,267348.0
103,75214.0,254898.0,267617.0
103,75259.0,255026.0,267769.0
103,75189.0,254838.0,267555.0
103,75075.0,254535.0,267231.0
103,74964.0,254185.0,266894.0
103,74850.0,253930.0,266633.0
103,74780.0,253806.0,266542.0
103,74758.0,253864.0,266656.0
103,74806.0,254112.0,266981.0
103,74849.0,254331.0,267265.0
103,74876.0,254495.0,267452.0
103,74880.0,254557.0,267526.0
103,74870.0,254555.0,267534.0
103,74857.0,254498.0,267473.0
103,74844.0,254450.0,267426.0
103,74852.0,254428.0,267415.0
103,74868.0,254463.0,267441.0
103,74872.0,254469.0,267401.0
103,74875.0,254426.0,267351.0
103,74887.0,254400.0,267312.0
103,74910.0,254383.0,267288.0
103,74940.0,254383.0,267276.0
104,74971.0,254412.0,267316.0
104,74962.0,254347.0,267248.0
104,74910.0,254227.0,267175.0
104,74847.0,254138.0,267097.0
104,74858.0,254286.0,267361.0
104,74814.0,254364.0,267484.0
104,74752.0,254304.0,267487.0
104,74681.0,254228.0,267475.0
104,74608.0,254116.0,267356.0
104,74591.0,254075.0,267383.0
104,74560.0,254048.0,267369.0
104,74556.0,254106.0,267439.0
104,74574.0,254205.0,267551.0
104,74594.0,254282.0,267663.0
104,74628.0,254368.0,267789.0
104,74640.0,254359.0,267775.0
104,74650.0,254315.0,267738.0
104,74662.0,254290.0,267706.0
104,74662.0,254251.0,267624.0
104,74667.0,254220.0,267566.0
104,74691.0,254209.0,267538.0
104,74735.0,254254.0,267594.0
104,74787.0,254356.0,267682.0
104,74838.0,254383.0,267723.0
104,74881.0,254431.0,267762.0
105,74886.0,254397.0,267728.0
105,74829.0,254263.0,267623.0
105,74783.0,254191.0,267607.0
105,74705.0,254085.0,267543.0
105,74610.0,253919.0,267421.0
105,74519.0,253804.0,267342.0
105,74430.0,253681.0,267272.0
105,74390.0,253673.0,267287.0
105,74370.0,253675.0,267318.0
105,74362.0,253667.0,267338.0
105,74360.0,253684.0,267383.0
105,74352.0,253677.0,267373.0
105,74357.0,253672.0,267387.0
105,74349.0,253626.0,267314.0
105,74342.0,253549.0,267215.0
105,74338.0,253491.0,267108.0
105,74356.0,253441.0,267068.0
105,74395.0,253495.0,267108.0
105,74428.0,253519.0,267121.0
105,74467.0,253554.0,267117.0
105,74503.0,253566.0,267125.0
105,74548.0,253624.0,267166.0
105,74586.0,253661.0,267169.0
105,74623.0,253643.0,267136.0
105,74663.0,253657.0,267129.0
106,74647.0,253525.0,266985.0
106,74600.0,253401.0,266901.0
106,74542.0,253320.0,266849.0
106,74496.0,253292.0,266843.0
106,74452.0,253275.0,266891.0
106,74386.0,253198.0,266832.0
106,74336.0,253143.0,266797.0
106,74319.0,253129.0,266825.0
106,74323.0,253170.0,266877.0
106,74325.0,253192.0,266919.0
106,74339.0,253247.0,266997.0
106,74354.0,253286.0,267034.0
106,74380.0,253307.0,267079.0
106,74430.0,253433.0,267246.0
106,74476.0,253578.0,267385.0
106,74515.0,253676.0,267465.0
106,74550.0,253707.0,267501.0
106,74594.0,253765.0,267544.0
106,74647.0,253840.0,267616.0
106,74702.0,253925.0,267671.0
106,74759.0,253995.0,267725.0
106,74821.0,254054.0,267783.0
106,74863.0,254071.0,267763.0
106,74868.0,253957.0,267635.0
106,74826.0,253854.0,267550.0
107,74787.0,253824.0,267541.0
107,74731.0,253758.0,267507.0
107,74681.0,253704.0,267505.0
107,74641.0,253696.0,267519.0
107,74611.0,253720.0,267582.0
107,74602.0,253753.0,267647.0
107,74609.0,253789.0,267688.0
107,74621.0,253832.0,267739.0
107,74631.0,253877.0,267784.0
107,74638.0,253886.0,267792.0
107,74654.0,253907.0,267798.0
107,74658.0,253874.0,267754.0
107,74698.0,253944.0,267824.0
107,74747.0,254035.0,267916.0
107,74796.0,254114.0,267983.0
107,74837.0,254159.0,268020.0
107,74882.0,254216.0,268052.0
107,74938.0,254305.0,268132.0
107,75001.0,254389.0,268212.0
107,75055.0,254462.0,268262.0
107,75114.0,254545.0,268340.0
107,75183.0,254662.0,268437.0
107,75234.0,254711.0,268492.0
107,75217.0,254620.0,268399.0
107,75164.0,254487.0,268285.0
108,75114.0,254402.0,268224.0
108,75053.0,254316.0,268161.0
108,74982.0,254224.0,268091.0
108,74923.0,254157.0,268034.0
108,74887.0,254131.0,268029.0
108,74857.0,254150.0,268019.0
108,74850.0,254140.0,268019.0
108,74850.0,254167.0,268047.0
108,74858.0,254198.0,268064.0
108,74860.0,254183.0,268049.0
108,74862.0,254169.0,268028.0
108,74876.0,254174.0,268008.0
108,74888.0,254154.0,267979.0
108,74897.0,254141.0,267920.0
108,74941.0,254191.0,267942.0
108,74990.0,254266.0,268015.0
108,75038.0,254337.0,268076.0
108,75075.0,254364.0,268065.0
108,75095.0,254340.0,267993.0
108,75109.0,254276.0,267878.0
108,75136.0,254278.0,267835.0
108,75179.0,254290.0,267840.0
108,75161.0,254179.0,267731.0
108,75110.0,254072.0,267635.0
108,75060.0,253992.0,267556.0
109,75012.0,253910.0,267478.0
109,74967.0,253868.0,267479.0
109,74921.0,253836.0,267466.0
109,74895.0,253836.0,267466.0
109,74895.0,253876.0,267524.0
109,74888.0,253890.0,267510.0
109,74902.0,253922.0,267584.0
109,74933.0,254034.0,267702.0
109,74978.0,254123.0,267820.0
109,75001.0,254190.0,267869.0
109,74993.0,254123.0,267766.0
109,74991.0,254030.0,267661.0
109,74989.0,253987.0,267560.0
109,74987.0,253916.0,267439.0
109,75027.0,253957.0,267489.0
109,75098.0,254089.0,267643.0
109,75196.0,254304.0,267869.0
109,75274.0,254486.0,268036.0
109,75347.0,254623.0,268180.0
109,75383.0,254666.0,268244.0
109,75369.0,254584.0,268171.0
109,75332.0,254540.0,268115.0
109,75287.0,254462.0,268048.0
109,75225.0,254359.0,267931.0
109,75162.0,254236.0,267819.0
110,75112.0,254144.0,267716.0
110,75093.0,254155.0,267738.0
110,75092.0,254171.0,267763.0
110,75103.0,254233.0,267828.0
110,75131.0,254326.0,267937.0
110,75144.0,254370.0,267978.0
110,75157.0,254361.0,267953.0
110,75179.0,254388.0,267978.0
110,75229.0,254517.0,268114.0
110,75274.0,254613.0,268199.0
110,75306.0,254665.0,268248.0
110,75347.0,254719.0,268281.0
110,75393.0,254787.0,268324.0
110,75440.0,254842.0,268379.0
110,75476.0,254883.0,268382.0
110,75509.0,254905.0,268371.0
110,75537.0,254893.0,268338.0
110,75529.0,254789.0,268227.0
110,75467.0,254618.0,268037.0
110,75410.0,254485.0,267906.0
110,75363.0,254428.0,267855.0
110,75266.0,254218.0,267607.0
110,75046.0,253041.0,266611.0
110,75111.0,252476.0,266522.0
110,75234.0,252614.0,266870.0
111,75521.0,253562.0,267926.0
111,75611.0,254074.0,268331.0
111,75618.0,254381.0,268464.0
111,75574.0,254591.0,268434.0
111,75484.0,254525.0,268165.0
111,75439.0,254415.0,267979.0
111,75440.0,254418.0,267920.0
111,75483.0,254567.0,268018.0
111,75520.0,254702.0,268105.0
111,75533.0,254722.0,268081.0
111,75581.0,254801.0,268163.0
111,75606.0,254838.0,268164.0
111,75587.0,254735.0,268015.0
111,75515.0,254441.0,267691.0
111,75412.0,254139.0,267367.0
111,75349.0,254044.0,267270.0
111,75304.0,254004.0,267236.0
111,75252.0,253948.0,267217.0
111,75205.0,253919.0,267193.0
111,75170.0,253903.0,267181.0
111,75145.0,253885.0,267163.0
111,75130.0,253891.0,267161.0
111,75134.0,253910.0,267191.0
111,75132.0,253933.0,267207.0
111,75138.0,253946.0,267218.0
112,75150.0,253967.0,267228.0
112,75162.0,253990.0,267234.0
112,75181.0,254003.0,267233.0
112,75198.0,254009.0,267204.0
112,75219.0,254013.0,267209.0
112,75240.0,254012.0,267170.0
112,75265.0,254022.0,267154.0
112,75299.0,254046.0,267176.0
112,75339.0,254112.0,267192.0
112,75390.0,254165.0,267237.0
112,75419.0,254184.0,267262.0
112,75383.0,254052.0,267126.0
112,75325.0,253925.0,266992.0
112,75269.0,253849.0,266930.0
112,75220.0,253782.0,266891.0
112,75170.0,253728.0,266875.0
112,75130.0,253710.0,266886.0
112,75145.0,253867.0,267116.0
112,75199.0,254137.0,267428.0
112,75237.0,254313.0,267632.0
112,75247.0,254371.0,267708.0
112,75264.0,254428.0,267762.0
112,75274.0,254466.0,267789.0
112,75314.0,254554.0,267864.0
112,75362.0,254670.0,267979.0
113,75395.0,254743.0,268061.0
113,75465.0,254866.0,268179.0
113,75509.0,254955.0,268256.0
113,75531.0,254950.0,268231.0
113,75546.0,254860.0,268129.0
113,75550.0,254770.0,267995.0
113,75577.0,254781.0,267995.0
113,75639.0,254909.0,268083.0
113,75770.0,255225.0,268445.0
113,75911.0,255594.0,268832.0
113,76000.0,255838.0,269051.0
113,76013.0,255811.0,268981.0
113,75918.0,255405.0,268534.0
113,75798.0,254947.0,268061.0
113,75717.0,254739.0,267822.0
113,75702.0,254781.0,267883.0
113,75686.0,254818.0,267945.0
113,75652.0,254805.0,267944.0
113,75619.0,254785.0,267940.0
113,75611.0,254812.0,267952.0
113,75592.0,254781.0,267901.0
113,75590.0,254777.0,267879.0
113,75589.0,254749.0,267864.0
113,75607.0,254778.0,267894.0
113,75643.0,254863.0,267970.0
114,75678.0,254957.0,268054.0
114,75707.0,254999.0,268074.0
114,75727.0,255013.0,268065.0
114,75750.0,255020.0,268042.0
114,75772.0,254991.0,267990.0
114,75789.0,254975.0,267967.0
114,75818.0,254984.0,267934.0
114,75853.0,255033.0,267951.0
114,75898.0,255103.0,267994.0
114,75943.0,255180.0,268050.0
114,75980.0,255210.0,268060.0
114,75990.0,255155.0,267999.0
114,75938.0,254961.0,267818.0
114,75889.0,254826.0,267680.0
114,75854.0,254778.0,267646.0
114,75820.0,254755.0,267618.0
114,75780.0,254695.0,267559.0
114,75753.0,254668.0,267531.0
114,75741.0,254686.0,267545.0
114,75747.0,254705.0,267559.0
114,75748.0,254704.0,267569.0
114,75737.0,254679.0,267538.0
114,75739.0,254674.0,267506.0
114,75750.0,254687.0,267519.0
114,75765.0,254705.0,267528.0
115,75783.0,254713.0,267513.0
115,75808.0,254746.0,267513.0
115,75830.0,254769.0,267522.0
115,75857.0,254790.0,267527.0
115,75887.0,254818.0,267520.0
115,75918.0,254843.0,267534.0
115,75953.0,254873.0,267538.0
115,75998.0,254911.0,267567.0
115,76031.0,254947.0,267591.0
115,76020.0,254874.0,267513.0
115,75967.0,254753.0,267411.0
115,75922.0,254657.0,267318.0
115,75874.0,254586.0,267271.0
115,75834.0,254538.0,267231.0
115,75797.0,254521.0,267217.0
115,75779.0,254543.0,267249.0
115,75757.0,254539.0,267252.0
115,75757.0,254558.0,267267.0
115,75761.0,254579.0,267304.0
115,75767.0,254602.0,267334.0
115,75773.0,254629.0,267343.0
115,75792.0,254659.0,267375.0
115,75815.0,254714.0,267417.0
115,75848.0,254771.0,267466.0
115,75872.0,254818.0,267511.0
116,75901.0,254846.0,267537.0
116,75928.0,254879.0,267548.0
116,75956.0,254919.0,267555.0
116,75989.0,254944.0,267557.0
116,76024.0,254971.0,267578.0
116,76052.0,255000.0,267572.0
116,76089.0,255035.0,267590.0
116,76125.0,255076.0,267622.0
116,76125.0,255008.0,267553.0
116,76071.0,254840.0,267394.0
116,76023.0,254746.0,267294.0
116,75978.0,254683.0,267274.0
116,75934.0,254653.0,267243.0
116,75889.0,254607.0,267214.0
116,75854.0,254591.0,267215.0
116,75844.0,254625.0,267260.0
116,75840.0,254653.0,267295.0
116,75835.0,254666.0,267306.0
116,75835.0,254686.0,267331.0
116,75840.0,254701.0,267346.0
116,75844.0,254726.0,267353.0
116,75862.0,254746.0,267363.0
116,75872.0,254758.0,267377.0
116,75892.0,254787.0,267379.0
116,75913.0,254793.0,267382.0
117,75934.0,254830.0,267388.0
117,75968.0,254858.0,267399.0
117,75993.0,254901.0,267419.0
117,76026.0,254920.0,267427.0
117,76054.0,254937.0,267424.0
117,76078.0,254960.0,267416.0
117,76112.0,254982.0,267436.0
117,76150.0,255032.0,267466.0
117,76193.0,255068.0,267500.0
117,76181.0,254985.0,267433.0
117,76122.0,254850.0,267295.0
117,76067.0,254762.0,267219.0
117,76014.0,254698.0,267172.0
117,75969.0,254659.0,267152.0
117,75913.0,254612.0,267114.0
117,75880.0,254606.0,267132.0
117,75859.0,254626.0,267158.0
117,75844.0,254631.0,267167.0
117,75840.0,254650.0,267186.0
117,75834.0,254671.0,267200.0
117,75827.0,254666.0,267204.0
117,75833.0,254681.0,267215.0
117,75844.0,254701.0,267225.0
117,75863.0,254731.0,267253.0
117,75887.0,254790.0,267302.0
118,75915.0,254835.0,267343.0
118,75943.0,254875.0,267370.0
118,75970.0,254918.0,267396.0
118,75998.0,254936.0,267419.0
118,76028.0,254988.0,267445.0
118,76057.0,255028.0,267457.0
118,76093.0,255065.0,267489.0
118,76119.0,255090.0,267502.0
118,76122.0,255035.0,267452.0
118,76072.0,254897.0,267318.0
118,76011.0,254770.0,267199.0
118,75940.0,254621.0,267057.0
118,75884.0,254550.0,267015.0
118,75843.0,254521.0,266990.0
118,75812.0,254558.0,267056.0
118,75806.0,254656.0,267156.0
118,75804.0,254695.0,267218.0
118,75797.0,254732.0,267262.0
118,75789.0,254751.0,267298.0
118,75784.0,254747.0,267293.0
118,75784.0,254766.0,267309.0
118,75791.0,254773.0,267304.0
118,75802.0,254800.0,267328.0
118,75819.0,254826.0,267334.0
118,75832.0,254825.0,267334.0
119,75844.0,254843.0,267328.0
119,75850.0,254842.0,267290.0
119,75726.0,254312.0,266684.0
119,75809.0,253919.0,266629.0
119,76174.0,254596.0,267736.0
119,76406.0,255338.0,268521.0
119,76521.0,255872.0,268906.0
119,76571.0,256106.0,269051.0
119,76553.0,256172.0,269073.0
119,76328.0,255744.0,268488.0
119,76083.0,255123.0,267767.0
119,75923.0,254708.0,267291.0
119,75831.0,254622.0,267182.0
119,75796.0,254680.0,267267.0
119,75794.0,254837.0,267423.0
119,75791.0,254947.0,267552.0
119,75793.0,255008.0,267627.0
119,75807.0,255106.0,267753.0
119,75818.0,255183.0,267854.0
119,75844.0,255271.0,267964.0
119,75882.0,255395.0,268105.0
119,75914.0,255514.0,268229.0
119,75934.0,255588.0,268283.0
119,75932.0,255537.0,268213.0
119,75922.0,255450.0,268106.0
120,75934.0,255452.0,268083.0
120,75935.0,255417.0,268043.0
120,75941.0,255385.0,267960.0
120,75950.0,255374.0,267918.0
120,75975.0,255401.0,267934.0
120,76009.0,255452.0,267985.0
120,75990.0,255356.0,267896.0
120,75925.0,255216.0,267770.0
120,75844.0,255103.0,267685.0
120,75776.0,255049.0,267643.0
120,75712.0,255023.0,267658.0
120,75658.0,255014.0,267684.0
120,75601.0,254996.0,267694.0
120,75564.0,255011.0,267721.0
120,75541.0,255014.0,267742.0
120,75515.0,255005.0,267720.0
120,75491.0,254974.0,267694.0
120,75469.0,254954.0,267659.0
120,75465.0,254942.0,267660.0
120,75479.0,254984.0,267699.0
120,75491.0,255004.0,267719.0
120,75509.0,255035.0,267738.0
120,75521.0,255037.0,267724.0
120,75535.0,255033.0,267713.0
120,75559.0,255042.0,267724.0
121,75574.0,255052.0,267695.0
121,75593.0,255047.0,267673.0
121,75623.0,255093.0,267694.0
121,75658.0,255115.0,267718.0
121,75698.0,255171.0,267743.0
121,75746.0,255241.0,267810.0
121,75766.0,255254.0,267821.0
121,75723.0,255110.0,267694.0
121,75646.0,254965.0,267575.0
121,75570.0,254879.0,267492.0
121,75494.0,254745.0,267394.0
121,75425.0,254647.0,267313.0
121,75368.0,254606.0,267307.0
121,75355.0,254699.0,267444.0
121,75370.0,254814.0,267595.0
121,75396.0,254934.0,267749.0
121,75431.0,255089.0,267928.0
121,75460.0,255209.0,268080.0
121,75471.0,255276.0,268143.0
121,75451.0,255206.0,268059.0
121,75404.0,255005.0,267818.0
121,75362.0,254826.0,267592.0
121,75344.0,254725.0,267459.0
121,75355.0,254691.0,267418.0
121,75367.0,254676.0,267375.0
122,75407.0,254733.0,267428.0
122,75445.0,254795.0,267471.0
122,75479.0,254851.0,267523.0
122,75526.0,254911.0,267580.0
122,75559.0,254958.0,267598.0
122,75599.0,254995.0,267632.0
122,75643.0,255043.0,267674.0
122,75629.0,254910.0,267523.0
122,75566.0,254704.0,267324.0
122,75503.0,254579.0,267200.0
122,75458.0,254547.0,267207.0
122,75422.0,254565.0,267259.0
122,75389.0,254571.0,267313.0
122,75373.0,254625.0,267413.0
122,75369.0,254708.0,267519.0
122,75360.0,254725.0,267541.0
122,75370.0,254768.0,267630.0
122,75385.0,254870.0,267753.0
122,75403.0,254921.0,267835.0
122,75409.0,254942.0,267870.0
122,75411.0,254944.0,267880.0
122,75430.0,254973.0,267906.0
122,75450.0,254994.0,267914.0
122,75464.0,254988.0,267899.0
122,75479.0,254977.0,267886.0
123,75493.0,254970.0,267855.0
123,75508.0,254951.0,267806.0
123,75522.0,254931.0,267787.0
123,75557.0,254967.0,267794.0
123,75595.0,255037.0,267855.0
123,75615.0,255018.0,267856.0
123,75573.0,254871.0,267733.0
123,75513.0,254792.0,267682.0
123,75466.0,254764.0,267704.0
123,75423.0,254768.0,267747.0
123,75361.0,254726.0,267741.0
123,75293.0,254629.0,267689.0
123,75250.0,254602.0,267651.0
123,75222.0,254556.0,267636.0
123,75207.0,254549.0,267645.0
123,75200.0,254563.0,267679.0
123,75200.0,254578.0,267696.0
123,75200.0,254583.0,267693.0
123,75213.0,254613.0,267738.0
123,75228.0,254618.0,267739.0
123,75250.0,254633.0,267758.0
123,75277.0,254653.0,267772.0
123,75300.0,254671.0,267768.0
123,75326.0,254694.0,267775.0
123,75362.0,254722.0,267794.0
124,75398.0,254755.0,267804.0
124,75428.0,254770.0,267827.0
124,75466.0,254814.0,267854.0
124,75508.0,254853.0,267884.0
124,75558.0,254922.0,267936.0
124,75587.0,254931.0,267941.0
124,75548.0,254789.0,267816.0
124,75473.0,254608.0,267672.0
124,75413.0,254537.0,267620.0
124,75348.0,254474.0,267585.0
124,75286.0,254418.0,267562.0
124,75229.0,254374.0,267535.0
124,75187.0,254347.0,267559.0
124,75169.0,254367.0,267601.0
124,75164.0,254381.0,267619.0
124,75155.0,254386.0,267643.0
124,75159.0,254426.0,267679.0
124,75163.0,254436.0,267714.0
124,75175.0,254453.0,267717.0
124,75194.0,254473.0,267734.0
124,75218.0,254504.0,267770.0
124,75252.0,254549.0,267791.0
124,75281.0,254591.0,267822.0
124,75311.0,254612.0,267837.0
124,75345.0,254634.0,267854.0
125,75380.0,254669.0,267857.0
125,75415.0,254689.0,267875.0
125,75455.0,254720.0,267881.0
125,75489.0,254732.0,267879.0
125,75526.0,254765.0,267889.0
125,75574.0,254822.0,267915.0
125,75615.0,254847.0,267923.0
125,75634.0,254826.0,267907.0
125,75593.0,254697.0,267776.0
125,75532.0,254575.0,267671.0
125,75475.0,254497.0,267627.0
125,75424.0,254441.0,267601.0
125,75374.0,254394.0,267584.0
125,75328.0,254374.0,267570.0
125,75304.0,254380.0,267605.0
125,75297.0,254403.0,267632.0
125,75291.0,254410.0,267665.0
125,75290.0,254420.0,267685.0
125,75288.0,254438.0,267692.0
125,75290.0,254435.0,267699.0
125,75297.0,254437.0,267706.0
125,75311.0,254461.0,267729.0
125,75335.0,254493.0,267747.0
125,75356.0,254519.0,267748.0
125,75386.0,254546.0,267773.0
126,75416.0,254580.0,267786.0
126,75448.0,254604.0,267809.0
126,75482.0,254647.0,267814.0
126,75518.0,254686.0,267839.0
126,75548.0,254710.0,267838.0
126,75585.0,254723.0,267840.0
126,75601.0,254651.0,267745.0
126,75600.0,254559.0,267651.0
126,75546.0,254406.0,267509.0
126,75495.0,254338.0,267470.0
126,75448.0,254319.0,267463.0
126,75411.0,254311.0,267483.0
126,75364.0,254290.0,267508.0
126,75334.0,254307.0,267530.0
126,75320.0,254351.0,267583.0
126,75317.0,254365.0,267618.0
126,75309.0,254376.0,267641.0
126,75279.0,254261.0,267520.0
126,75259.0,254173.0,267433.0
126,75291.0,254269.0,267556.0
126,75297.0,254311.0,267547.0
126,75312.0,254336.0,267585.0
126,75344.0,254402.0,267633.0
126,75374.0,254462.0,267684.0
126,75412.0,254506.0,267712.0
127,75447.0,254554.0,267757.0
127,75485.0,254606.0,267779.0
127,75519.0,254623.0,267797.0
127,75530.0,254607.0,267713.0
127,75559.0,254596.0,267700.0
127,75591.0,254633.0,267715.0
127,75622.0,254634.0,267729.0
127,75656.0,254679.0,267742.0
127,75652.0,254607.0,267662.0
127,75584.0,254422.0,267474.0
127,75503.0,254275.0,267332.0
127,75435.0,254180.0,267265.0
127,75375.0,254105.0,267222.0
127,75317.0,254069.0,267194.0
127,75259.0,254035.0,267177.0
127,75237.0,254058.0,267224.0
127,75229.0,254088.0,267257.0
127,75215.0,254086.0,267275.0
127,75206.0,254100.0,267293.0
127,75201.0,254104.0,267293.0
127,75197.0,254109.0,267298.0
127,75209.0,254118.0,267302.0
127,75230.0,254157.0,267342.0
127,75256.0,254206.0,267380.0
127,75282.0,254238.0,267407.0
128,75308.0,254276.0,267428.0
128,75335.0,254307.0,267456.0
128,75363.0,254353.0,267448.0
128,75394.0,254368.0,267456.0
128,75424.0,254388.0,267461.0
128,75454.0,254412.0,267469.0
128,75494.0,254442.0,267472.0
128,75524.0,254466.0,267478.0
128,75555.0,254458.0,267444.0
128,75612.0,254560.0,267549.0
128,75629.0,254559.0,267563.0
128,75586.0,254446.0,267459.0
128,75525.0,254352.0,267379.0
128,75479.0,254300.0,267353.0
128,75426.0,254282.0,267333.0
128,75369.0,254228.0,267307.0
128,75323.0,254207.0,267293.0
128,75282.0,254182.0,267288.0
128,75275.0,254219.0,267353.0
128,75266.0,254237.0,267376.0
128,75256.0,254249.0,267401.0
128,75248.0,254265.0,267406.0
128,75244.0,254263.0,267401.0
128,75243.0,254271.0,267389.0
128,75262.0,254293.0,267418.0
129,75284.0,254318.0,267441.0
129,75302.0,254338.0,267446.0
129,75329.0,254380.0,267480.0
129,75358.0,254413.0,267494.0
129,75380.0,254432.0,267492.0
129,75378.0,254363.0,267379.0
129,75230.0,253491.0,266499.0
129,75323.0,252928.0,266375.0
129,75669.0,253649.0,267434.0
129,75984.0,254613.0,268481.0
129,76126.0,255339.0,269016.0
129,76203.0,255759.0,269270.0
129,76196.0,255852.0,269215.0
129,76082.0,255561.0,268753.0
129,75926.0,255077.0,268179.0
129,75822.0,254783.0,267855.0
129,75750.0,254692.0,267718.0
129,75699.0,254664.0,267661.0
129,75658.0,254676.0,267701.0
129,75630.0,254734.0,267737.0
129,75614.0,254797.0,267795.0
129,75586.0,254741.0,267755.0
129,75543.0,254626.0,267616.0
129,75512.0,254534.0,267529.0
129,75506.0,254520.0,267523.0
130,75511.0,254563.0,267562.0
130,75519.0,254616.0,267589.0
130,75529.0,254635.0,267594.0
130,75533.0,254627.0,267565.0
130,75529.0,254573.0,267495.0
130,75535.0,254548.0,267440.0
130,75556.0,254555.0,267422.0
130,75584.0,254587.0,267458.0
130,75621.0,254637.0,267500.0
130,75659.0,254705.0,267553.0
130,75708.0,254789.0,267641.0
130,75759.0,254882.0,267721.0
130,75803.0,254961.0,267784.0
130,75835.0,254990.0,267793.0
130,75847.0,254949.0,267751.0
130,75801.0,254794.0,267592.0
130,75740.0,254656.0,267442.0
130,75686.0,254584.0,267391.0
130,75639.0,254517.0,267340.0
130,75589.0,254479.0,267303.0
130,75542.0,254439.0,267274.0
130,75522.0,254473.0,267321.0
130,75518.0,254510.0,267373.0
130,75515.0,254560.0,267427.0
130,75519.0,254593.0,267453.0
131,75515.0,254579.0,267448.0
131,75513.0,254586.0,267427.0
131,75516.0,254567.0,267414.0
131,75526.0,254593.0,267435.0
131,75555.0,254645.0,267456.0
131,75580.0,254673.0,267488.0
131,75606.0,254723.0,267505.0
131,75633.0,254737.0,267499.0
131,75657.0,254731.0,267487.0
131,75680.0,254736.0,267466.0
131,75706.0,254758.0,267453.0
131,75737.0,254779.0,267448.0
131,75770.0,254807.0,267456.0
131,75809.0,254842.0,267483.0
131,75850.0,254895.0,267502.0
131,75873.0,254885.0,267487.0
131,75858.0,254810.0,267408.0
131,75808.0,254685.0,267302.0
131,75775.0,254639.0,267254.0
131,75744.0,254609.0,267241.0
131,75706.0,254583.0,267225.0
131,75676.0,254574.0,267211.0
131,75663.0,254580.0,267230.0
131,75661.0,254605.0,267254.0
131,75654.0,254616.0,267258.0
132,75655.0,254628.0,267289.0
132,75660.0,254637.0,267289.0
132,75660.0,254636.0,267276.0
132,75672.0,254652.0,267281.0
132,75688.0,254688.0,267300.0
132,75714.0,254716.0,267325.0
132,75732.0,254737.0,267318.0
132,75751.0,254739.0,267306.0
132,75775.0,254749.0,267291.0
132,75810.0,254798.0,267309.0
132,75844.0,254840.0,267350.0
132,75878.0,254879.0,267373.0
132,75915.0,254907.0,267390.0
132,75950.0,254959.0,267404.0
132,75961.0,254903.0,267348.0
132,75924.0,254760.0,267205.0
132,75870.0,254641.0,267091.0
132,75823.0,254574.0,267034.0
132,75787.0,254541.0,267019.0
132,75755.0,254516.0,267012.0
132,75726.0,254504.0,267013.0
132,75714.0,254527.0,267043.0
132,75710.0,254551.0,267074.0
132,75708.0,254570.0,267081.0
132,75708.0,254573.0,267086.0
133,75711.0,254605.0,267102.0
133,75716.0,254598.0,267102.0
133,75728.0,254612.0,267089.0
133,75743.0,254621.0,267093.0
133,75766.0,254640.0,267111.0
133,75795.0,254686.0,267144.0
133,75817.0,254709.0,267165.0
133,75849.0,254746.0,267177.0
133,75880.0,254780.0,267193.0
133,75910.0,254813.0,267213.0
133,75938.0,254837.0,267219.0
133,75970.0,254872.0,267223.0
133,76001.0,254889.0,267228.0
133,76042.0,254927.0,267265.0
133,76075.0,254947.0,267267.0
133,76056.0,254858.0,267194.0
133,76006.0,254711.0,267045.0
133,75959.0,254636.0,266980.0
133,75926.0,254596.0,266967.0
133,75879.0,254547.0,266927.0
133,75834.0,254516.0,266902.0
133,75802.0,254504.0,266893.0
133,75783.0,254496.0,266909.0
133,75744.0,254370.0,266770.0
133,75743.0,254404.0,266810.0
134,75756.0,254473.0,266888.0
134,75751.0,254489.0,266922.0
134,75768.0,254534.0,266955.0
134,75790.0,254593.0,267023.0
134,75816.0,254664.0,267084.0
134,75842.0,254718.0,267135.0
134,75863.0,254759.0,267162.0
134,75889.0,254795.0,267181.0
134,75914.0,254830.0,267222.0
134,75942.0,254871.0,267241.0
134,75971.0,254891.0,267258.0
134,75990.0,254895.0,267233.0
134,76016.0,254907.0,267213.0
134,76040.0,254929.0,267224.0
134,76072.0,254954.0,267234.0
134,76106.0,254994.0,267247.0
134,76122.0,254968.0,267226.0
134,76079.0,254817.0,267079.0
134,76021.0,254702.0,266948.0
134,75969.0,254628.0,266898.0
134,75918.0,254572.0,266865.0
134,75863.0,254521.0,266839.0
134,75813.0,254490.0,266818.0
134,75776.0,254485.0,266836.0
134,75758.0,254525.0,266880.0
135,75744.0,254530.0,266897.0
135,75732.0,254531.0,266924.0
135,75722.0,254562.0,266940.0
135,75714.0,254569.0,266955.0
135,75714.0,254568.0,266960.0
135,75723.0,254604.0,266977.0
135,75733.0,254631.0,266999.0
135,75747.0,254643.0,267018.0
135,75764.0,254669.0,267025.0
135,75782.0,254697.0,267034.0
135,75800.0,254738.0,267061.0
135,75831.0,254774.0,267089.0
135,75852.0,254796.0,267096.0
135,75877.0,254806.0,267108.0
135,75906.0,254843.0,267123.0
135,75935.0,254875.0,267141.0
135,75970.0,254913.0,267184.0
135,76002.0,254962.0,267183.0
135,76004.0,254903.0,267131.0
135,75950.0,254760.0,266989.0
135,75894.0,254647.0,266892.0
135,75840.0,254587.0,266859.0
135,75788.0,254538.0,266827.0
135,75735.0,254499.0,266801.0
135,75687.0,254484.0,266810.0
136,75661.0,254501.0,266855.0
136,75642.0,254525.0,266886.0
136,75626.0,254536.0,266915.0
136,75617.0,254561.0,266952.0
136,75602.0,254582.0,266963.0
136,75598.0,254581.0,266981.0
136,75601.0,254602.0,267003.0
136,75609.0,254646.0,267035.0
136,75620.0,254652.0,267054.0
136,75631.0,254684.0,267067.0
136,75648.0,254707.0,267097.0
136,75669.0,254740.0,267111.0
136,75691.0,254758.0,267127.0
136,75712.0,254781.0,267140.0
136,75730.0,254800.0,267133.0
136,75751.0,254807.0,267137.0
136,75764.0,254798.0,267111.0
136,75794.0,254816.0,267116.0
136,75826.0,254851.0,267177.0
136,75801.0,254837.0,267181.0
136,75737.0,254739.0,267097.0
136,75671.0,254620.0,266986.0
136,75596.0,254507.0,266914.0
136,75541.0,254484.0,266902.0
136,75509.0,254529.0,266991.0
137,75466.0,254498.0,266988.0
137,75426.0,254417.0,266928.0
137,75400.0,254411.0,266940.0
137,75314.0,254226.0,266709.0
137,75101.0,253296.0,265777.0
137,75495.0,254025.0,267062.0
137,75877.0,255194.0,268461.0
137,76016.0,255810.0,269010.0
137,75986.0,255790.0,268871.0
137,75950.0,255669.0,268693.0
137,75866.0,255512.0,268400.0
137,75737.0,255210.0,267943.0
137,75670.0,254952.0,267622.0
137,75660.0,254867.0,267528.0
137,75699.0,254961.0,267614.0
137,75740.0,255074.0,267740.0
137,75768.0,255150.0,267789.0
137,75782.0,255167.0,267777.0
137,75749.0,255038.0,267657.0
137,75661.0,254814.0,267459.0
137,75570.0,254646.0,267306.0
137,75493.0,254551.0,267270.0
137,75422.0,254505.0,267279.0
137,75331.0,254426.0,267244.0
137,75236.0,254317.0,267179.0
138,75172.0,254253.0,267163.0
138,75134.0,254246.0,267186.0
138,75119.0,254303.0,267297.0
138,75103.0,254324.0,267386.0
138,75058.0,254267.0,267334.0
138,75045.0,254261.0,267371.0
138,75076.0,254390.0,267545.0
138,75100.0,254491.0,267679.0
138,75101.0,254490.0,267697.0
138,75089.0,254418.0,267623.0
138,75079.0,254387.0,267573.0
138,75101.0,254427.0,267635.0
138,75148.0,254530.0,267766.0
138,75177.0,254602.0,267836.0
138,75187.0,254568.0,267795.0
138,75186.0,254492.0,267687.0
138,75203.0,254448.0,267655.0
138,75231.0,254483.0,267683.0
138,75266.0,254528.0,267754.0
138,75231.0,254483.0,267766.0
138,75147.0,254332.0,267684.0
138,75039.0,254195.0,267569.0
138,74946.0,254127.0,267555.0
138,74847.0,254037.0,267550.0
138,74745.0,253961.0,267526.0
139,74675.0,253940.0,267582.0
139,74623.0,253942.0,267632.0
139,74565.0,253834.0,267564.0
139,74514.0,253757.0,267502.0
139,74473.0,253680.0,267461.0
139,74468.0,253710.0,267505.0
139,74494.0,253810.0,267664.0
139,74506.0,253852.0,267742.0
139,74521.0,253870.0,267782.0
139,74522.0,253885.0,267769.0
139,74535.0,253859.0,267748.0
139,74575.0,253942.0,267853.0
139,74608.0,253984.0,267899.0
139,74625.0,253983.0,267878.0
139,74642.0,253946.0,267816.0
139,74672.0,253958.0,267809.0
139,74715.0,253998.0,267820.0
139,74744.0,253979.0,267773.0
139,74800.0,254035.0,267830.0
139,74876.0,254163.0,267971.0
139,74894.0,254200.0,268012.0
139,74815.0,254016.0,267842.0
139,74719.0,253850.0,267721.0
139,74644.0,253782.0,267708.0
139,74566.0,253704.0,267680.0
140,74480.0,253613.0,267626.0
140,74410.0,253563.0,267608.0
140,74388.0,253595.0,267672.0
140,74391.0,253670.0,267780.0
140,74385.0,253660.0,267780.0
140,74380.0,253665.0,267806.0
140,74354.0,253618.0,267739.0
140,74359.0,253609.0,267709.0
140,74344.0,253525.0,267617.0
140,74345.0,253471.0,267560.0
140,74363.0,253415.0,267520.0
140,74343.0,253147.0,267301.0
140,74159.0,252067.0,266299.0
140,74030.0,251571.0,265721.0
140,74100.0,251840.0,265950.0
140,74216.0,252233.0,266314.0
140,74349.0,252674.0,266713.0
140,74440.0,252921.0,266915.0
140,74234.0,252106.0,265850.0
140,73671.0,249817.0,263201.0
140,73361.0,248142.0,261525.0
140,73350.0,247869.0,261430.0
140,73488.0,248274.0,262163.0
140,73917.0,249745.0,264208.0
140,74292.0,251106.0,266061.0
141,74561.0,252398.0,267690.0
141,74700.0,253150.0,268580.0
141,74700.0,253341.0,268788.0
141,74649.0,253224.0,268648.0
141,74643.0,253321.0,268739.0
141,74761.0,253763.0,269233.0
141,74996.0,254493.0,270141.0
141,75292.0,255577.0,271188.0
141,75388.0,255880.0,271454.0
141,75555.0,256354.0,271956.0
141,76029.0,257870.0,273716.0
141,76476.0,259444.0,275447.0
141,76652.0,259958.0,275950.0
141,76748.0,260166.0,276123.0
141,76863.0,260397.0,276335.0
141,77018.0,260756.0,276729.0
141,77124.0,260969.0,276942.0
141,77107.0,260948.0,276858.0
141,77011.0,260701.0,276565.0
141,76949.0,260563.0,276446.0
141,76863.0,260406.0,276279.0
141,76811.0,260367.0,276244.0
141,76763.0,260328.0,276224.0
141,76725.0,260273.0,276163.0
141,76724.0,260312.0,276189.0
142,76683.0,260179.0,276024.0
142,76682.0,260153.0,275983.0
142,76714.0,260293.0,276120.0
142,76729.0,260357.0,276152.0
142,76755.0,260377.0,276160.0
142,76771.0,260320.0,276094.0
142,76707.0,260012.0,275701.0
142,76662.0,259752.0,275384.0
142,76716.0,259881.0,275486.0
142,76842.0,260222.0,275890.0
142,76923.0,260415.0,276087.0
142,76986.0,260523.0,276189.0
142,77056.0,260648.0,276286.0
142,77144.0,260857.0,276514.0
142,77196.0,261009.0,276690.0
142,77139.0,260860.0,276547.0
142,77131.0,260884.0,276636.0
142,77126.0,261017.0,276804.0
142,77113.0,261092.0,276904.0
142,77119.0,261210.0,277080.0
142,77127.0,261321.0,277222.0
142,77156.0,261454.0,277372.0
142,77196.0,261600.0,277507.0
142,77198.0,261596.0,277521.0
142,77197.0,261595.0,277479.0
143,77196.0,261528.0,277424.0
143,77226.0,261560.0,277436.0
143,77265.0,261619.0,277472.0
143,77296.0,261664.0,277495.0
143,77339.0,261708.0,277510.0
143,77381.0,261761.0,277542.0
143,77442.0,261866.0,277640.0
143,77536.0,262066.0,277848.0
143,77592.0,262143.0,277900.0
143,77631.0,262169.0,277907.0
143,77633.0,262107.0,277869.0
143,77615.0,262091.0,277886.0
143,77610.0,262188.0,278003.0
143,77594.0,262238.0,278085.0
143,77559.0,262232.0,278078.0
143,77520.0,262197.0,278041.0
143,77503.0,262169.0,278030.0
143,77474.0,262100.0,277924.0
143,77471.0,262056.0,277868.0
143,77512.0,262173.0,278025.0
143,77548.0,262271.0,278129.0
143,77592.0,262404.0,278262.0
143,77645.0,262542.0,278404.0
143,77677.0,262588.0,278431.0
143,77698.0,262594.0,278405.0
144,77734.0,262646.0,278440.0
144,77786.0,262744.0,278517.0
144,77845.0,262843.0,278602.0
144,77941.0,263039.0,278847.0
144,78028.0,263230.0,279065.0
144,78087.0,263389.0,279274.0
144,78124.0,263539.0,279508.0
144,78055.0,263384.0,279361.0
144,77755.0,262527.0,278336.0
144,77373.0,261451.0,277041.0
144,76959.0,260277.0,275598.0
144,76104.0,257846.0,272556.0
144,75636.0,256419.0,270835.0
144,75655.0,256488.0,270958.0
144,75767.0,256879.0,271434.0
144,75562.0,256285.0,270687.0
144,75446.0,255999.0,270335.0
144,75252.0,255404.0,269563.0
144,74769.0,254019.0,267790.0
144,74116.0,252116.0,265350.0
144,73262.0,249619.0,262193.0
144,72674.0,247905.0,260018.0
144,72188.0,246478.0,258231.0
144,71875.0,245552.0,257081.0
144,71722.0,245079.0,256487.0
145,71768.0,245177.0,256621.0
145,71829.0,245315.0,256786.0
145,72082.0,245944.0,257686.0
145,72644.0,247519.0,259764.0
145,73043.0,248716.0,261297.0
145,73292.0,249526.0,262351.0
145,73852.0,251235.0,264513.0
145,74122.0,252102.0,265622.0
145,74275.0,252642.0,266293.0
145,74365.0,252981.0,266700.0
145,74378.0,253028.0,266746.0
145,74373.0,253047.0,266743.0
145,74436.0,253214.0,266930.0
145,74474.0,253304.0,267043.0
145,74468.0,253257.0,266949.0
145,74435.0,253121.0,266744.0
145,74441.0,253103.0,266697.0
145,74540.0,253310.0,266928.0
145,74674.0,253612.0,267289.0
145,74748.0,253776.0,267429.0
145,74735.0,253671.0,267253.0
145,74773.0,253666.0,267221.0
145,74778.0,253598.0,267098.0
145,74772.0,253500.0,266908.0
145,74767.0,253380.0,266732.0
146,74781.0,253320.0,266613.0
146,74831.0,253366.0,266621.0
146,74890.0,253430.0,266676.0
146,74955.0,253500.0,266760.0
146,74992.0,253514.0,266791.0
146,74988.0,253485.0,266782.0
146,75000.0,253514.0,266842.0
146,75191.0,254085.0,267586.0
146,75477.0,254937.0,268677.0
146,75658.0,255519.0,269399.0
146,75808.0,256009.0,270020.0
146,75922.0,256383.0,270457.0
146,75984.0,256568.0,270675.0
146,76056.0,256774.0,270923.0
146,76178.0,257135.0,271359.0
146,76337.0,257582.0,271904.0
146,76463.0,257911.0,272280.0
146,76512.0,258034.0,272388.0
146,76530.0,258026.0,272346.0
146,76529.0,257977.0,272226.0
146,76535.0,257928.0,272145.0
146,76560.0,257928.0,272119.0
146,76584.0,257905.0,272065.0
146,76606.0,257909.0,272041.0
146,76628.0,257889.0,271963.0
147,76638.0,257828.0,271857.0
147,76655.0,257797.0,271771.0
147,76695.0,257833.0,271773.0
147,76738.0,257867.0,271789.0
147,76772.0,257887.0,271768.0
147,76815.0,257911.0,271766.0
147,76855.0,257932.0,271789.0
147,76848.0,257818.0,271669.0
147,76805.0,257668.0,271528.0
147,76767.0,257582.0,271438.0
147,76731.0,257544.0,271401.0
147,76695.0,257501.0,271379.0
147,76651.0,257448.0,271318.0
147,76585.0,257303.0,271168.0
147,76578.0,257330.0,271205.0
147,76579.0,257393.0,271301.0
147,76580.0,257452.0,271384.0
147,76579.0,257507.0,271419.0
147,76574.0,257518.0,271415.0
147,76580.0,257551.0,271445.0
147,76593.0,257580.0,271451.0
147,76597.0,257556.0,271420.0
147,76608.0,257568.0,271395.0
147,76612.0,257521.0,271337.0
147,76635.0,257541.0,271326.0
148,76650.0,257527.0,271293.0
148,76661.0,257475.0,271201.0
148,76625.0,257267.0,270927.0
148,76640.0,257250.0,270892.0
148,76681.0,257316.0,270937.0
148,76717.0,257376.0,270988.0
148,76757.0,257418.0,271017.0
148,76782.0,257445.0,270997.0
148,76823.0,257490.0,271028.0
148,76873.0,257540.0,271092.0
148,76891.0,257525.0,271081.0
148,76856.0,257399.0,270984.0
148,76785.0,257262.0,270834.0
148,76735.0,257175.0,270777.0
148,76661.0,257059.0,270668.0
148,76416.0,256362.0,269882.0
148,76029.0,254854.0,268279.0
148,76126.0,254986.0,268568.0
148,76662.0,256558.0,270516.0
148,77235.0,258417.0,272712.0
148,77494.0,259355.0,273774.0
148,77560.0,259713.0,274161.0
148,77409.0,259462.0,273773.0
148,77170.0,258788.0,272923.0
148,76982.0,258158.0,272187.0
149,76918.0,257955.0,271922.0
149,76941.0,258046.0,272008.0
149,76952.0,258098.0,272036.0
149,76935.0,258064.0,271964.0
149,77007.0,258250.0,272184.0
149,77031.0,258301.0,272215.0
149,77024.0,258235.0,272133.0
149,77043.0,258221.0,272105.0
149,77090.0,258292.0,272193.0
149,77192.0,258551.0,272496.0
149,77287.0,258819.0,272791.0
149,77330.0,258942.0,272953.0
149,77289.0,258846.0,272886.0
149,77221.0,258754.0,272813.0
149,77200.0,258796.0,272921.0
149,77219.0,258979.0,273214.0
149,77248.0,259194.0,273527.0
149,77234.0,259260.0,273661.0
149,77204.0,259296.0,273682.0
149,77170.0,259260.0,273666.0
149,77159.0,259300.0,273734.0
149,77144.0,259308.0,273718.0
149,77120.0,259248.0,273676.0
149,77091.0,259185.0,273601.0
149,77071.0,259147.0,273523.0
150,77063.0,259101.0,273479.0
150,77056.0,259057.0,273393.0
150,77049.0,258990.0,273301.0
150,77046.0,258942.0,273220.0
150,77042.0,258864.0,273119.0
150,76942.0,258409.0,272556.0
150,76938.0,258289.0,272438.0
150,76999.0,258439.0,272603.0
150,77043.0,258547.0,272696.0
150,77094.0,258653.0,272796.0
150,77156.0,258791.0,272943.0
150,77287.0,259125.0,273340.0
150,77397.0,259421.0,273756.0
150,77450.0,259631.0,274072.0
150,77453.0,259743.0,274246.0
150,77402.0,259756.0,274302.0
150,77429.0,259939.0,274602.0
150,77449.0,260170.0,274919.0
150,77470.0,260431.0,275248.0
150,77511.0,260637.0,275518.0
150,77534.0,260812.0,275713.0
150,77543.0,260914.0,275855.0
150,77521.0,260950.0,275893.0
150,77510.0,260972.0,275937.0
150,77485.0,260927.0,275879.0
151,77545.0,261063.0,276079.0
151,77716.0,261498.0,276649.0
151,77947.0,262128.0,277433.0
151,78174.0,262795.0,278241.0
151,78283.0,263180.0,278634.0
151,78353.0,263379.0,278847.0
151,78438.0,263612.0,279092.0
151,78561.0,263964.0,279479.0
151,78699.0,264363.0,279876.0
151,78778.0,264546.0,280064.0
151,78804.0,264586.0,280031.0
151,78811.0,264535.0,279923.0
151,78792.0,264327.0,279704.0
151,78692.0,263967.0,279305.0
151,78529.0,263469.0,278751.0
151,78384.0,263116.0,278391.0
151,78305.0,263004.0,278263.0
151,78241.0,262950.0,278233.0
151,78172.0,262859.0,278145.0
151,78136.0,262877.0,278158.0
151,78149.0,262972.0,278286.0
151,78040.0,262722.0,277975.0
151,77953.0,262404.0,277632.0
151,77566.0,260726.0,275804.0
151,75416.0,253097.0,267313.0
152,72944.0,244025.0,257958.0
152,71744.0,239675.0,253647.0
152,71359.0,238400.0,252289.0
152,71441.0,238750.0,252683.0
152,71627.0,239442.0,253518.0
152,72286.0,241614.0,256278.0
152,73929.0,246900.0,262946.0
152,75240.0,251211.0,268118.0
152,75878.0,253388.0,270528.0
152,76130.0,254286.0,271369.0
152,76191.0,254483.0,271528.0
152,76143.0,254421.0,271392.0
152,75941.0,253874.0,270603.0
152,76021.0,254484.0,271281.0
152,76356.0,255708.0,272859.0
152,76507.0,256278.0,273612.0
152,76443.0,256181.0,273454.0
152,76275.0,255668.0,272768.0
152,76234.0,255584.0,272646.0
152,76296.0,255827.0,272967.0
152,76449.0,256342.0,273631.0
152,76540.0,256678.0,274048.0
152,76552.0,256742.0,274095.0
152,76321.0,256102.0,273178.0
152,75859.0,254803.0,271328.0
153,75404.0,253499.0,269512.0
153,74890.0,252006.0,267410.0
153,74479.0,250842.0,265760.0
153,74346.0,250422.0,265165.0
153,74552.0,250885.0,265785.0
153,75089.0,252206.0,267601.0
153,75819.0,254065.0,270213.0
153,76310.0,255436.0,272118.0
153,76531.0,256218.0,273183.0
153,76611.0,256581.0,273695.0
153,76606.0,256708.0,273889.0
153,76620.0,256914.0,274168.0
153,76622.0,257119.0,274413.0
153,76635.0,257265.0,274611.0
153,76617.0,257264.0,274602.0
153,76597.0,257194.0,274500.0
153,76575.0,257119.0,274389.0
153,76547.0,257073.0,274316.0
153,76559.0,257112.0,274338.0
153,76593.0,257219.0,274457.0
153,76615.0,257247.0,274451.0
153,76620.0,257215.0,274394.0
153,76638.0,257230.0,274394.0
153,76706.0,257369.0,274546.0
153,76747.0,257447.0,274611.0
154,76726.0,257319.0,274409.0
154,76732.0,257215.0,274234.0
154,76739.0,257162.0,274144.0
154,76742.0,257097.0,274085.0
154,76703.0,256954.0,273901.0
154,76605.0,256724.0,273656.0
154,76335.0,256058.0,272757.0
154,75796.0,254646.0,270869.0
154,75259.0,253225.0,268944.0
154,74871.0,252219.0,267585.0
154,74668.0,251703.0,266892.0
154,74484.0,251220.0,266232.0
154,74236.0,250546.0,265302.0
154,74131.0,250232.0,264893.0
154,74120.0,250195.0,264869.0
154,74220.0,250482.0,265239.0
154,74292.0,250650.0,265472.0
154,74328.0,250726.0,265567.0
154,74426.0,250987.0,265895.0
154,74566.0,251342.0,266342.0
154,74660.0,251555.0,266614.0
154,74864.0,252071.0,267309.0
154,75118.0,252732.0,268172.0
154,75355.0,253331.0,268972.0
154,75574.0,253882.0,269685.0
155,75731.0,254260.0,270193.0
155,75851.0,254571.0,270632.0
155,75935.0,254827.0,271025.0
155,75962.0,254981.0,271233.0
155,75952.0,255010.0,271268.0
155,75894.0,254908.0,271176.0
155,75866.0,254879.0,271145.0
155,75890.0,255014.0,271311.0
155,75906.0,255063.0,271373.0
155,75916.0,255088.0,271403.0
155,75919.0,255107.0,271430.0
155,75940.0,255157.0,271476.0
155,75953.0,255170.0,271483.0
155,75973.0,255211.0,271500.0
155,76024.0,255305.0,271616.0
155,76086.0,255438.0,271784.0
155,76168.0,255599.0,271980.0
155,76259.0,255821.0,272238.0
155,76363.0,256055.0,272516.0
155,76509.0,256396.0,272948.0
155,76675.0,256799.0,273451.0
155,76819.0,257127.0,273868.0
155,76937.0,257389.0,274194.0
155,77010.0,257528.0,274374.0
155,77016.0,257538.0,274431.0
156,77016.0,257557.0,274490.0
156,76982.0,257485.0,274414.0
156,76905.0,257211.0,274114.0
156,76901.0,257307.0,274273.0
156,76878.0,257337.0,274330.0
156,76856.0,257354.0,274327.0
156,76853.0,257372.0,274349.0
156,76849.0,257392.0,274365.0
156,76843.0,257380.0,274337.0
156,76844.0,257378.0,274316.0
156,76847.0,257388.0,274319.0
156,76880.0,257474.0,274386.0
156,76912.0,257521.0,274447.0
156,76929.0,257532.0,274435.0
156,76959.0,257562.0,274459.0
156,76987.0,257586.0,274458.0
156,77018.0,257623.0,274470.0
156,77069.0,257698.0,274554.0
156,77121.0,257778.0,274640.0
156,77163.0,257817.0,274663.0
156,77195.0,257834.0,274663.0
156,77246.0,257911.0,274705.0
156,77300.0,257980.0,274798.0
156,77307.0,257964.0,274803.0
156,77277.0,257889.0,274781.0
157,77251.0,257870.0,274785.0
157,77226.0,257866.0,274816.0
157,77183.0,257818.0,274784.0
157,77124.0,257751.0,274717.0
157,77104.0,257767.0,274769.0
157,77106.0,257816.0,274844.0
157,77101.0,257840.0,274881.0
157,77099.0,257893.0,274936.0
157,77100.0,257912.0,274982.0
157,77107.0,257942.0,275011.0
157,77119.0,257982.0,275036.0
157,77135.0,257976.0,275053.0
157,77136.0,257961.0,275010.0
157,77117.0,257875.0,274864.0
157,77122.0,257852.0,274819.0
157,77113.0,257786.0,274734.0
157,77129.0,257795.0,274745.0
157,77171.0,257884.0,274829.0
157,77251.0,258042.0,275034.0
157,77285.0,258087.0,275105.0
157,77240.0,257929.0,274925.0
157,77089.0,257562.0,274493.0
157,76839.0,256959.0,273720.0
157,76696.0,256642.0,273363.0
157,76572.0,256415.0,273102.0
158,76494.0,256290.0,273006.0
158,76490.0,256393.0,273184.0
158,76600.0,256781.0,273739.0
158,76724.0,257190.0,274320.0
158,76799.0,257470.0,274708.0
158,76772.0,257343.0,274561.0
158,76512.0,256069.0,272985.0
158,76437.0,255414.0,272035.0
158,76572.0,255581.0,272243.0
158,77083.0,256996.0,274170.0
158,77342.0,258159.0,275677.0
158,77415.0,258593.0,276210.0
158,77330.0,258544.0,276074.0
158,77085.0,258022.0,275284.0
158,76879.0,257228.0,274226.0
158,76816.0,256798.0,273699.0
158,76838.0,256922.0,273806.0
158,76879.0,257043.0,273919.0
158,76852.0,257008.0,273851.0
158,76784.0,256839.0,273669.0
158,76754.0,256834.0,273746.0
158,76653.0,256654.0,273562.0
158,76537.0,256441.0,273324.0
158,76478.0,256367.0,273274.0
158,76460.0,256431.0,273389.0
159,76420.0,256401.0,273363.0
159,76393.0,256378.0,273339.0
159,76365.0,256339.0,273315.0
159,76319.0,256258.0,273209.0
159,76249.0,256074.0,272969.0
159,76212.0,255950.0,272793.0
159,76216.0,255966.0,272778.0
159,76244.0,256000.0,272841.0
159,76257.0,256012.0,272822.0
159,76261.0,255976.0,272759.0
159,76302.0,256038.0,272831.0
159,76352.0,256128.0,272914.0
159,76380.0,256166.0,272932.0
159,76412.0,256179.0,272940.0
159,76450.0,256208.0,272940.0
159,76479.0,256233.0,272931.0
159,76504.0,256203.0,272873.0
159,76524.0,256159.0,272851.0
159,76475.0,256059.0,272775.0
159,76381.0,255920.0,272647.0
159,76296.0,255848.0,272606.0
159,76243.0,255836.0,272645.0
159,76188.0,255831.0,272690.0
159,76133.0,255839.0,272732.0
159,76103.0,255876.0,272817.0
160,76094.0,255942.0,272902.0
160,76085.0,255978.0,272954.0
160,76082.0,256026.0,273018.0
160,76083.0,256068.0,273057.0
160,76101.0,256126.0,273139.0
160,76117.0,256173.0,273194.0
160,76135.0,256204.0,273209.0
160,76165.0,256245.0,273257.0
160,76192.0,256281.0,273275.0
160,76226.0,256330.0,273309.0
160,76265.0,256379.0,273332.0
160,76283.0,256337.0,273269.0
160,76286.0,256224.0,273098.0
160,76310.0,256196.0,273028.0
160,76350.0,256225.0,273049.0
160,76407.0,256323.0,273138.0
160,76472.0,256457.0,273276.0
160,76500.0,256488.0,273333.0
160,76444.0,256397.0,273252.0
160,76386.0,256340.0,273239.0
160,76331.0,256333.0,273243.0
160,76283.0,256315.0,273278.0
160,76237.0,256324.0,273318.0
160,76198.0,256342.0,273366.0
160,76182.0,256372.0,273453.0
161,76162.0,256382.0,273442.0
161,76136.0,256351.0,273421.0
161,76119.0,256338.0,273400.0
161,76106.0,256336.0,273404.0
161,76109.0,256336.0,273401.0
161,76114.0,256336.0,273399.0
161,76133.0,256368.0,273438.0
161,76146.0,256386.0,273424.0
161,76163.0,256405.0,273423.0
161,76184.0,256421.0,273415.0
161,76190.0,256390.0,273360.0
161,76219.0,256402.0,273341.0
161,76251.0,256437.0,273362.0
161,76290.0,256493.0,273394.0
161,76337.0,256550.0,273453.0
161,76372.0,256581.0,273522.0
161,76341.0,256536.0,273510.0
161,76279.0,256458.0,273463.0
161,76211.0,256413.0,273442.0
161,76152.0,256371.0,273449.0
161,76095.0,256328.0,273456.0
161,76040.0,256305.0,273469.0
161,76020.0,256331.0,273536.0
161,76018.0,256383.0,273618.0
161,76013.0,256412.0,273666.0
162,76005.0,256423.0,273713.0
162,76005.0,256456.0,273768.0
162,76013.0,256482.0,273796.0
162,76030.0,256512.0,273818.0
162,76046.0,256556.0,273839.0
162,76070.0,256573.0,273862.0
162,76086.0,256560.0,273835.0
162,76115.0,256600.0,273864.0
162,76153.0,256650.0,273902.0
162,76187.0,256694.0,273918.0
162,76226.0,256712.0,273942.0
162,76265.0,256767.0,273953.0
162,76313.0,256828.0,274006.0
162,76370.0,256898.0,274072.0
162,76387.0,256900.0,274090.0
162,76332.0,256743.0,273970.0
162,76256.0,256625.0,273863.0
162,76182.0,256548.0,273821.0
162,76117.0,256488.0,273799.0
162,76051.0,256440.0,273788.0
162,75991.0,256419.0,273796.0
162,75971.0,256439.0,273872.0
162,75965.0,256462.0,273925.0
162,75962.0,256504.0,273992.0
162,75969.0,256545.0,274088.0
163,75979.0,256606.0,274169.0
163,75992.0,256639.0,274196.0
163,75999.0,256646.0,274206.0
163,76022.0,256671.0,274214.0
163,76046.0,256702.0,274215.0
163,76072.0,256726.0,274245.0
163,76106.0,256742.0,274247.0
163,76140.0,256787.0,274275.0
163,76179.0,256830.0,274303.0
163,76223.0,256877.0,274332.0
163,76265.0,256904.0,274331.0
163,76307.0,256943.0,274362.0
163,76349.0,256978.0,274350.0
163,76397.0,257023.0,274381.0
163,76448.0,257076.0,274415.0
163,76461.0,257040.0,274394.0
163,76411.0,256918.0,274288.0
163,76337.0,256796.0,274197.0
163,76278.0,256739.0,274167.0
163,76222.0,256700.0,274174.0
163,76165.0,256654.0,274150.0
163,76120.0,256648.0,274187.0
163,76101.0,256668.0,274244.0
163,76083.0,256683.0,274283.0
163,76071.0,256696.0,274316.0
164,76072.0,256719.0,274364.0
164,76066.0,256751.0,274384.0
164,76072.0,256754.0,274388.0
164,76080.0,256766.0,274399.0
164,76089.0,256769.0,274393.0
164,76114.0,256801.0,274404.0
164,76140.0,256833.0,274435.0
164,76170.0,256864.0,274455.0
164,76201.0,256895.0,274480.0
164,76243.0,256938.0,274501.0
164,76276.0,256985.0,274521.0
164,76313.0,257015.0,274534.0
164,76357.0,257058.0,274561.0
164,76405.0,257127.0,274613.0
164,76442.0,257133.0,274611.0
164,76407.0,257036.0,274531.0
164,76343.0,256924.0,274450.0
164,76283.0,256846.0,274389.0
164,76229.0,256818.0,274395.0
164,76176.0,256771.0,274371.0
164,76124.0,256735.0,274371.0
164,76094.0,256745.0,274416.0
164,76083.0,256754.0,274437.0
164,76066.0,256730.0,274429.0
164,76050.0,256731.0,274418.0
165,76037.0,256702.0,274392.0
165,76031.0,256691.0,274374.0
165,76032.0,256679.0,274332.0
165,76043.0,256688.0,274330.0
165,76062.0,256690.0,274338.0
165,76081.0,256716.0,274324.0
165,76111.0,256724.0,274337.0
165,76142.0,256761.0,274330.0
165,76170.0,256792.0,274336.0
165,76203.0,256806.0,274339.0
165,76235.0,256817.0,274334.0
165,76287.0,256891.0,274373.0
165,76323.0,256917.0,274380.0
165,76382.0,257008.0,274461.0
165,76442.0,257090.0,274550.0
165,76436.0,257023.0,274481.0
165,76384.0,256889.0,274342.0
165,76336.0,256833.0,274324.0
165,76294.0,256827.0,274360.0
165,76262.0,256842.0,274443.0
165,76217.0,256863.0,274512.0
165,76192.0,256881.0,274582.0
165,76175.0,256952.0,274699.0
165,76171.0,256983.0,274771.0
165,76151.0,256975.0,274767.0
166,76076.0,256757.0,274485.0
166,76044.0,256679.0,274403.0
166,76057.0,256719.0,274459.0
166,76098.0,256837.0,274612.0
166,76143.0,256949.0,274741.0
166,76182.0,257039.0,274840.0
166,76211.0,257104.0,274903.0
166,76236.0,257136.0,274918.0
166,76262.0,257171.0,274925.0
166,76297.0,257219.0,274969.0
166,76325.0,257240.0,274956.0
166,76357.0,257263.0,274958.0
166,76391.0,257288.0,274949.0
166,76414.0,257292.0,274910.0
166,76432.0,257262.0,274848.0
166,76485.0,257333.0,274875.0
166,76521.0,257353.0,274929.0
166,76496.0,257259.0,274824.0
166,76421.0,257117.0,274689.0
166,76354.0,257023.0,274625.0
166,76282.0,256937.0,274573.0
166,76217.0,256889.0,274548.0
166,76140.0,256812.0,274495.0
166,76104.0,256818.0,274543.0
166,76109.0,256927.0,274710.0
167,76127.0,257034.0,274864.0
167,76140.0,257114.0,274980.0
167,76148.0,257196.0,275092.0
167,76162.0,257256.0,275192.0
167,76173.0,257298.0,275222.0
167,76182.0,257309.0,275238.0
167,76185.0,257312.0,275222.0
167,76194.0,257315.0,275222.0
167,76216.0,257313.0,275205.0
167,76229.0,257328.0,275194.0
167,76279.0,257417.0,275271.0
167,76315.0,257474.0,275300.0
167,76342.0,257494.0,275304.0
167,76367.0,257503.0,275285.0
167,76394.0,257488.0,275244.0
167,76420.0,257493.0,275193.0
167,76454.0,257535.0,275213.0
167,76497.0,257567.0,275230.0
167,76495.0,257498.0,275176.0
167,76434.0,257346.0,275044.0
167,76360.0,257242.0,274933.0
167,76296.0,257175.0,274873.0
167,76239.0,257128.0,274862.0
167,76175.0,257067.0,274833.0
167,76136.0,257054.0,274825.0
168,76115.0,257080.0,274881.0
168,76105.0,257080.0,274876.0
168,76094.0,257081.0,274891.0
168,76089.0,257084.0,274903.0
168,76090.0,257095.0,274905.0
168,76095.0,257110.0,274921.0
168,76111.0,257143.0,274949.0
168,76126.0,257152.0,274948.0
168,76146.0,257171.0,274920.0
168,76176.0,257194.0,274934.0
168,76205.0,257225.0,274944.0
168,76236.0,257261.0,274962.0
168,76272.0,257303.0,274982.0
168,76306.0,257321.0,274987.0
168,76354.0,257366.0,275003.0
168,76385.0,257396.0,275025.0
168,76382.0,257322.0,274938.0
168,76329.0,257184.0,274818.0
168,76263.0,257086.0,274711.0
168,76186.0,256961.0,274586.0
168,76135.0,256914.0,274566.0
168,76078.0,256874.0,274559.0
168,76028.0,256860.0,274564.0
168,76009.0,256874.0,274595.0
168,75997.0,256880.0,274613.0
169,75993.0,256900.0,274647.0
169,75991.0,256904.0,274662.0
169,75992.0,256917.0,274663.0
169,75994.0,256924.0,274666.0
169,76013.0,256960.0,274671.0
169,76035.0,256978.0,274679.0
169,76063.0,257000.0,274681.0
169,76092.0,257026.0,274701.0
169,76124.0,257063.0,274720.0
169,76162.0,257087.0,274718.0
169,76195.0,257108.0,274722.0
169,76224.0,257138.0,274706.0
169,76263.0,257157.0,274687.0
169,76306.0,257195.0,274705.0
169,76356.0,257245.0,274738.0
169,76411.0,257307.0,274775.0
169,76425.0,257260.0,274728.0
169,76375.0,257115.0,274568.0
169,76317.0,257023.0,274472.0
169,76271.0,256953.0,274441.0
169,76228.0,256922.0,274431.0
169,76181.0,256895.0,274418.0
169,76145.0,256886.0,274431.0
169,76129.0,256920.0,274473.0
169,76106.0,256874.0,274426.0
170,76108.0,256900.0,274479.0
170,76098.0,256918.0,274495.0
170,76091.0,256907.0,274495.0
170,76093.0,256894.0,274482.0
170,76102.0,256917.0,274487.0
170,76119.0,256939.0,274493.0
170,76143.0,256958.0,274491.0
170,76170.0,256995.0,274504.0
170,76193.0,257003.0,274498.0
170,76225.0,257043.0,274526.0
170,76261.0,257079.0,274541.0
170,76292.0,257101.0,274520.0
170,76325.0,257114.0,274531.0
170,76362.0,257138.0,274509.0
170,76411.0,257183.0,274537.0
170,76449.0,257215.0,274559.0
170,76465.0,257173.0,274503.0
170,76423.0,257046.0,274379.0
170,76363.0,256936.0,274274.0
170,76188.0,256477.0,273663.0
170,76052.0,255693.0,272779.0
170,76043.0,255378.0,272479.0
170,76406.0,256360.0,273789.0
170,76696.0,257420.0,275166.0
170,76800.0,257986.0,275825.0
171,76757.0,258039.0,275819.0
171,76582.0,257668.0,275259.0
171,76443.0,257134.0,274550.0
171,76360.0,256807.0,274140.0
171,76354.0,256860.0,274152.0
171,76404.0,256994.0,274300.0
171,76480.0,257232.0,274605.0
171,76540.0,257411.0,274829.0
171,76561.0,257484.0,274881.0
171,76568.0,257470.0,274818.0
171,76562.0,257381.0,274675.0
171,76574.0,257328.0,274566.0
171,76624.0,257374.0,274595.0
171,76700.0,257557.0,274796.0
171,76763.0,257694.0,274957.0
171,76740.0,257598.0,274847.0
171,76651.0,257381.0,274568.0
171,76565.0,257192.0,274374.0
171,76501.0,257098.0,274271.0
171,76445.0,257039.0,274241.0
171,76403.0,257016.0,274242.0
171,76371.0,257031.0,274278.0
171,76365.0,257082.0,274354.0
171,76359.0,257103.0,274395.0
171,76351.0,257120.0,274427.0
172,76338.0,257113.0,274413.0
172,76333.0,257107.0,274396.0
172,76334.0,257091.0,274372.0
172,76350.0,257105.0,274382.0
172,76372.0,257159.0,274415.0
172,76401.0,257200.0,274470.0
172,76434.0,257248.0,274509.0
172,76467.0,257294.0,274531.0
172,76503.0,257339.0,274554.0
172,76536.0,257373.0,274581.0
172,76568.0,257396.0,274556.0
172,76597.0,257406.0,274556.0
172,76633.0,257429.0,274560.0
172,76677.0,257496.0,274601.0
172,76718.0,257513.0,274624.0
172,76699.0,257405.0,274508.0
172,76627.0,257262.0,274341.0
172,76556.0,257147.0,274260.0
172,76491.0,257084.0,274209.0
172,76425.0,257000.0,274181.0
172,76354.0,256942.0,274156.0
172,76305.0,256913.0,274163.0
172,76274.0,256925.0,274192.0
172,76256.0,256925.0,274212.0
172,76240.0,256930.0,274236.0
173,76227.0,256920.0,274248.0
173,76221.0,256913.0,274256.0
173,76220.0,256921.0,274261.0
173,76229.0,256929.0,274277.0
173,76244.0,256931.0,274277.0
173,76258.0,256948.0,274293.0
173,76279.0,256964.0,274290.0
173,76302.0,256971.0,274298.0
173,76335.0,256995.0,274301.0
173,76371.0,257031.0,274325.0
173,76404.0,257057.0,274313.0
173,76435.0,257069.0,274304.0
173,76471.0,257084.0,274308.0
173,76513.0,257108.0,274316.0
173,76557.0,257157.0,274339.0
173,76606.0,257196.0,274377.0
173,76598.0,257120.0,274301.0
173,76523.0,256948.0,274169.0
173,76442.0,256825.0,274076.0
173,76371.0,256745.0,274045.0
173,76299.0,256668.0,274009.0
173,76221.0,256593.0,273970.0
173,76149.0,256542.0,273965.0
173,76127.0,256568.0,274062.0
173,76109.0,256587.0,274113.0
174,76090.0,256595.0,274160.0
174,76069.0,256599.0,274177.0
174,76057.0,256591.0,274178.0
174,76052.0,256578.0,274183.0
174,76058.0,256584.0,274196.0
174,76073.0,256604.0,274221.0
174,76091.0,256624.0,274230.0
174,76112.0,256631.0,274228.0
174,76135.0,256639.0,274247.0
174,76160.0,256669.0,274242.0
174,76192.0,256675.0,274246.0
174,76224.0,256693.0,274257.0
174,76263.0,256729.0,274277.0
174,76309.0,256790.0,274310.0
174,76353.0,256843.0,274361.0
174,76369.0,256812.0,274339.0
174,76306.0,256658.0,274202.0
174,76220.0,256516.0,274122.0
174,76142.0,256460.0,274099.0
174,76067.0,256396.0,274104.0
174,75989.0,256338.0,274088.0
174,75927.0,256298.0,274097.0
174,75898.0,256315.0,274145.0
174,75884.0,256327.0,274180.0
174,75874.0,256343.0,274226.0
175,75870.0,256353.0,274261.0
175,75868.0,256349.0,274272.0
175,75875.0,256357.0,274288.0
175,75893.0,256389.0,274315.0
175,75914.0,256394.0,274319.0
175,75938.0,256439.0,274331.0
175,75966.0,256445.0,274333.0
175,76000.0,256485.0,274347.0
175,76038.0,256522.0,274368.0
175,76078.0,256565.0,274393.0
175,76122.0,256595.0,274416.0
175,76162.0,256629.0,274424.0
175,76203.0,256652.0,274434.0
175,76257.0,256708.0,274459.0
175,76308.0,256771.0,274501.0
175,76320.0,256732.0,274483.0
175,76247.0,256568.0,274343.0
175,76156.0,256446.0,274235.0
175,76067.0,256362.0,274198.0
175,75993.0,256301.0,274176.0
175,75919.0,256259.0,274179.0
175,75855.0,256223.0,274182.0
175,75830.0,256252.0,274247.0
175,75819.0,256273.0,274298.0
175,75813.0,256291.0,274333.0
176,75812.0,256303.0,274366.0
176,75812.0,256307.0,274383.0
176,75820.0,256335.0,274398.0
176,75840.0,256368.0,274437.0
176,75864.0,256406.0,274451.0
176,75894.0,256431.0,274461.0
176,75925.0,256469.0,274491.0
176,75964.0,256504.0,274508.0
176,76004.0,256555.0,274532.0
176,76044.0,256597.0,274559.0
176,76088.0,256624.0,274554.0
176,76126.0,256655.0,274553.0
176,76168.0,256683.0,274556.0
176,76220.0,256732.0,274562.0
176,76265.0,256794.0,274576.0
176,76323.0,256857.0,274631.0
176,76376.0,256915.0,274655.0
176,76388.0,256865.0,274632.0
176,76330.0,256734.0,274523.0
176,76251.0,256634.0,274423.0
176,76174.0,256546.0,274360.0
176,76101.0,256474.0,274327.0
176,76026.0,256420.0,274296.0
176,75973.0,256400.0,274292.0
176,75949.0,256427.0,274359.0
177,75945.0,256459.0,274408.0
177,75943.0,256477.0,274443.0
177,75937.0,256491.0,274459.0
177,75935.0,256509.0,274469.0
177,75938.0,256506.0,274459.0
177,75950.0,256516.0,274448.0
177,75962.0,256528.0,274454.0
177,75980.0,256535.0,274440.0
177,76005.0,256568.0,274437.0
177,76037.0,256597.0,274451.0
177,76071.0,256639.0,274482.0
177,76109.0,256684.0,274485.0
177,76146.0,256719.0,274511.0
177,76186.0,256750.0,274525.0
177,76229.0,256811.0,274538.0
177,76281.0,256855.0,274564.0
177,76323.0,256888.0,274589.0
177,76321.0,256833.0,274545.0
177,76262.0,256716.0,274451.0
177,76201.0,256647.0,274401.0
177,76143.0,256612.0,274385.0
177,76086.0,256570.0,274377.0
177,76031.0,256541.0,274372.0
177,75997.0,256550.0,274401.0
177,75984.0,256576.0,274456.0
178,75983.0,256602.0,274463.0
178,75979.0,256612.0,274494.0
178,75977.0,256621.0,274507.0
178,75984.0,256638.0,274514.0
178,75995.0,256652.0,274516.0
178,76012.0,256675.0,274530.0
178,76032.0,256700.0,274535.0
178,76061.0,256718.0,274532.0
178,76087.0,256739.0,274522.0
178,76120.0,256769.0,274520.0
178,76146.0,256744.0,274478.0
178,76168.0,256711.0,274392.0
178,76211.0,256763.0,274454.0
178,76241.0,256803.0,274454.0
178,76277.0,256831.0,274457.0
178,76329.0,256889.0,274499.0
178,76394.0,256998.0,274587.0
178,76453.0,257074.0,274675.0
178,76456.0,257029.0,274629.0
178,76406.0,256902.0,274512.0
178,76349.0,256831.0,274455.0
178,76295.0,256792.0,274424.0
178,76246.0,256751.0,274413.0
178,76197.0,256717.0,274409.0
178,76151.0,256699.0,274419.0
179,76137.0,256733.0,274459.0
179,76135.0,256754.0,274496.0
179,76131.0,256772.0,274536.0
179,76132.0,256803.0,274568.0
179,76132.0,256798.0,274569.0
179,76136.0,256805.0,274561.0
179,76150.0,256819.0,274570.0
179,76167.0,256840.0,274576.0
179,76195.0,256868.0,274583.0
179,76223.0,256905.0,274599.0
179,76264.0,256948.0,274640.0
179,76299.0,256977.0,274648.0
179,76332.0,257023.0,274665.0
179,76367.0,257049.0,274653.0
179,76402.0,257073.0,274654.0
179,76439.0,257083.0,274631.0
179,76471.0,257112.0,274621.0
179,76515.0,257157.0,274633.0
179,76566.0,257196.0,274678.0
179,76609.0,257236.0,274675.0
179,76594.0,257110.0,274577.0
179,76535.0,256985.0,274431.0
179,76485.0,256906.0,274377.0
179,76435.0,256863.0,274355.0
179,76385.0,256816.0,274344.0
180,76334.0,256793.0,274326.0
180,76298.0,256771.0,274335.0
180,76282.0,256797.0,274383.0
180,76275.0,256811.0,274413.0
180,76270.0,256826.0,274430.0
180,76263.0,256823.0,274424.0
180,76265.0,256828.0,274424.0
180,76271.0,256841.0,274426.0
180,76292.0,256874.0,274460.0
180,76311.0,256906.0,274489.0
180,76341.0,256943.0,274508.0
180,76369.0,256974.0,274539.0
180,76400.0,257008.0,274561.0
180,76436.0,257046.0,274581.0
180,76471.0,257077.0,274593.0
180,76506.0,257121.0,274616.0
180,76541.0,257156.0,274625.0
180,76579.0,257188.0,274633.0
180,76621.0,257228.0,274642.0
180,76658.0,257241.0,274641.0
180,76706.0,257304.0,274657.0
180,76741.0,257321.0,274682.0
180,76743.0,257253.0,274606.0
180,76694.0,257110.0,274462.0
180,76640.0,257019.0,274384.0
181,76601.0,256990.0,274347.0
181,76550.0,256925.0,274329.0
181,76501.0,256897.0,274307.0
181,76461.0,256891.0,274310.0
181,76445.0,256918.0,274370.0
181,76437.0,256926.0,274391.0
181,76428.0,256936.0,274394.0
181,76430.0,256953.0,274429.0
181,76427.0,256971.0,274445.0
181,76435.0,256978.0,274441.0
181,76444.0,257001.0,274453.0
181,76466.0,257036.0,274479.0
181,76492.0,257064.0,274501.0
181,76520.0,257087.0,274523.0
181,76547.0,257122.0,274530.0
181,76579.0,257167.0,274542.0
181,76611.0,257189.0,274548.0
181,76638.0,257213.0,274530.0
181,76672.0,257234.0,274535.0
181,76704.0,257244.0,274523.0
181,76738.0,257265.0,274512.0
181,76777.0,257295.0,274508.0
181,76819.0,257346.0,274539.0
181,76858.0,257381.0,274559.0
181,76877.0,257338.0,274520.0
182,76837.0,257218.0,274388.0
182,76790.0,257127.0,274296.0
182,76745.0,257075.0,274262.0
182,76700.0,257017.0,274221.0
182,76648.0,256993.0,274208.0
182,76608.0,256960.0,274194.0
182,76587.0,256996.0,274252.0
182,76573.0,256993.0,274272.0
182,76566.0,257019.0,274295.0
182,76557.0,257028.0,274315.0
182,76552.0,257051.0,274321.0
182,76550.0,257048.0,274319.0
182,76552.0,257050.0,274315.0
182,76561.0,257055.0,274312.0
182,76572.0,257071.0,274298.0
182,76591.0,257083.0,274306.0
182,76612.0,257109.0,274303.0
182,76637.0,257137.0,274331.0
182,76670.0,257186.0,274340.0
182,76691.0,257191.0,274336.0
182,76712.0,257209.0,274322.0
182,76741.0,257211.0,274299.0
182,76767.0,257244.0,274292.0
182,76737.0,257089.0,274051.0
182,76592.0,256339.0,273089.0
183,76555.0,255829.0,272534.0
183,76795.0,256373.0,273322.0
183,77112.0,257431.0,274723.0
183,77262.0,258093.0,275578.0
183,77295.0,258390.0,275950.0
183,77161.0,258247.0,275740.0
183,76943.0,257777.0,275086.0
183,76781.0,257252.0,274421.0
183,76712.0,257039.0,274162.0
183,76697.0,257057.0,274198.0
183,76716.0,257257.0,274449.0
183,76730.0,257439.0,274665.0
183,76741.0,257544.0,274785.0
183,76736.0,257552.0,274777.0
183,76710.0,257463.0,274632.0
183,76673.0,257283.0,274395.0
183,76651.0,257153.0,274222.0
183,76655.0,257135.0,274175.0
183,76674.0,257171.0,274187.0
183,76673.0,257134.0,274127.0
183,76652.0,257007.0,273934.0
183,76641.0,256930.0,273791.0
183,76632.0,256849.0,273659.0
183,76640.0,256820.0,273597.0
183,76641.0,256737.0,273505.0
184,76600.0,256619.0,273394.0
184,76562.0,256618.0,273452.0
184,76521.0,256647.0,273540.0
184,76472.0,256660.0,273596.0
184,76412.0,256645.0,273624.0
184,76350.0,256625.0,273642.0
184,76300.0,256627.0,273648.0
184,76273.0,256643.0,273697.0
184,76264.0,256681.0,273767.0
184,76259.0,256719.0,273828.0
184,76246.0,256741.0,273872.0
184,76236.0,256756.0,273874.0
184,76228.0,256729.0,273831.0
184,76224.0,256720.0,273800.0
184,76223.0,256700.0,273767.0
184,76222.0,256686.0,273739.0
184,76225.0,256659.0,273684.0
184,76224.0,256636.0,273619.0
184,76231.0,256614.0,273586.0
184,76239.0,256599.0,273526.0
184,76255.0,256577.0,273478.0
184,76273.0,256578.0,273448.0
184,76295.0,256575.0,273419.0
184,76327.0,256596.0,273404.0
184,76358.0,256604.0,273410.0
185,76334.0,256502.0,273282.0
185,76257.0,256327.0,273102.0
185,76189.0,256221.0,273005.0
185,76128.0,256177.0,272984.0
185,76066.0,256137.0,272973.0
185,76004.0,256077.0,272949.0
185,75944.0,256063.0,272947.0
185,75923.0,256092.0,272983.0
185,75909.0,256091.0,273011.0
185,75900.0,256098.0,273021.0
185,75898.0,256117.0,273061.0
185,75905.0,256146.0,273103.0
185,75909.0,256174.0,273122.0
185,75923.0,256208.0,273127.0
185,75942.0,256210.0,273118.0
185,75957.0,256227.0,273118.0
185,75986.0,256241.0,273119.0
185,76022.0,256275.0,273148.0
185,76055.0,256325.0,273168.0
185,76092.0,256349.0,273172.0
185,76122.0,256369.0,273171.0
185,76156.0,256396.0,273164.0
185,76194.0,256418.0,273155.0
185,76232.0,256440.0,273145.0
185,76277.0,256491.0,273193.0
186,76330.0,256556.0,273222.0
186,76365.0,256553.0,273217.0
186,76330.0,256427.0,273066.0
186,76276.0,256285.0,272947.0
186,76231.0,256235.0,272884.0
186,76188.0,256187.0,272849.0
186,76143.0,256141.0,272802.0
186,76103.0,256083.0,272767.0
186,76084.0,256106.0,272779.0
186,76079.0,256113.0,272802.0
186,76083.0,256126.0,272824.0
186,76087.0,256159.0,272834.0
186,76090.0,256155.0,272848.0
186,76100.0,256191.0,272868.0
186,76115.0,256205.0,272878.0
186,76135.0,256227.0,272885.0
186,76157.0,256233.0,272887.0
186,76185.0,256276.0,272893.0
186,76213.0,256302.0,272921.0
186,76245.0,256331.0,272935.0
186,76283.0,256381.0,272962.0
186,76312.0,256414.0,272966.0
186,76354.0,256451.0,272986.0
186,76332.0,256209.0,272642.0
186,76388.0,256288.0,272790.0
187,76350.0,256235.0,272759.0
187,76277.0,256117.0,272598.0
187,76238.0,256079.0,272575.0
187,76197.0,256070.0,272573.0
187,76158.0,256034.0,272548.0
187,76128.0,256000.0,272524.0
187,76112.0,256022.0,272553.0
187,76116.0,256059.0,272575.0
187,76120.0,256059.0,272598.0
187,76126.0,256102.0,272635.0
187,76136.0,256114.0,272649.0
187,76143.0,256122.0,272654.0
187,76161.0,256147.0,272667.0
187,76184.0,256185.0,272676.0
187,76206.0,256194.0,272678.0
187,76234.0,256222.0,272690.0
187,76267.0,256266.0,272713.0
187,76299.0,256310.0,272745.0
187,76341.0,256343.0,272774.0
187,76375.0,256373.0,272784.0
187,76409.0,256395.0,272780.0
187,76442.0,256426.0,272778.0
187,76486.0,256474.0,272815.0
187,76510.0,256452.0,272778.0
187,76460.0,256297.0,272606.0
188,76406.0,256171.0,272489.0
188,76360.0,256112.0,272437.0
188,76312.0,256061.0,272402.0
188,76272.0,256021.0,272382.0
188,76220.0,255984.0,272343.0
188,76194.0,255980.0,272360.0
188,76182.0,256018.0,272403.0
188,76178.0,256029.0,272410.0
188,76169.0,256009.0,272386.0
188,76164.0,255939.0,272316.0
188,76182.0,256036.0,272450.0
188,76179.0,256046.0,272456.0
188,76205.0,256086.0,272498.0
188,76234.0,256160.0,272539.0
188,76260.0,256191.0,272563.0
188,76287.0,256216.0,272592.0
188,76320.0,256269.0,272624.0
188,76355.0,256301.0,272641.0
188,76385.0,256338.0,272646.0
188,76415.0,256359.0,272652.0
188,76449.0,256380.0,272644.0
188,76483.0,256385.0,272631.0
188,76518.0,256427.0,272642.0
188,76558.0,256467.0,272655.0
188,76600.0,256517.0,272694.0
189,76636.0,256518.0,272692.0
189,76602.0,256372.0,272547.0
189,76541.0,256229.0,272383.0
189,76491.0,256135.0,272308.0
189,76440.0,256085.0,272249.0
189,76390.0,256018.0,272220.0
189,76337.0,255983.0,272196.0
189,76307.0,255980.0,272215.0
189,76290.0,256011.0,272270.0
189,76283.0,256026.0,272279.0
189,76281.0,256047.0,272318.0
189,76279.0,256060.0,272338.0
189,76279.0,256084.0,272363.0
189,76283.0,256096.0,272376.0
189,76297.0,256120.0,272394.0
189,76314.0,256143.0,272408.0
189,76334.0,256180.0,272427.0
189,76358.0,256198.0,272444.0
189,76385.0,256232.0,272460.0
189,76417.0,256272.0,272476.0
189,76450.0,256288.0,272511.0
189,76479.0,256335.0,272504.0
189,76507.0,256348.0,272508.0
189,76540.0,256386.0,272514.0
189,76573.0,256404.0,272522.0
190,76603.0,256426.0,272521.0
190,76645.0,256462.0,272553.0
190,76686.0,256526.0,272579.0
190,76721.0,256534.0,272577.0
190,76697.0,256427.0,272490.0
190,76640.0,256283.0,272334.0
190,76598.0,256198.0,272270.0
190,76549.0,256150.0,272214.0
190,76511.0,256113.0,272219.0
190,76463.0,256070.0,272199.0
190,76435.0,256080.0,272217.0
190,76428.0,256111.0,272279.0
190,76419.0,256136.0,272313.0
190,76414.0,256139.0,272325.0
190,76406.0,256146.0,272337.0
190,76403.0,256153.0,272346.0
190,76401.0,256156.0,272351.0
190,76409.0,256164.0,272351.0
190,76418.0,256170.0,272349.0
190,76432.0,256202.0,272362.0
190,76451.0,256228.0,272377.0
190,76475.0,256254.0,272408.0
190,76503.0,256290.0,272426.0
190,76526.0,256311.0,272448.0
190,76555.0,256330.0,272447.0
191,76576.0,256350.0,272433.0
191,76609.0,256381.0,272473.0
191,76648.0,256437.0,272497.0
191,76672.0,256422.0,272466.0
191,76635.0,256311.0,272373.0
191,76575.0,256178.0,272239.0
191,76522.0,256110.0,272182.0
191,76476.0,256058.0,272167.0
191,76428.0,256017.0,272156.0
191,76375.0,255982.0,272140.0
191,76344.0,255997.0,272164.0
191,76333.0,256023.0,272225.0
191,76318.0,256028.0,272263.0
191,76309.0,256048.0,272285.0
191,76302.0,256052.0,272304.0
191,76296.0,256055.0,272310.0
191,76297.0,256074.0,272320.0
191,76304.0,256095.0,272343.0
191,76311.0,256108.0,272324.0
191,76329.0,256115.0,272349.0
191,76347.0,256140.0,272361.0
191,76374.0,256180.0,272376.0
191,76401.0,256208.0,272394.0
191,76427.0,256237.0,272410.0
191,76456.0,256255.0,272420.0
192,76482.0,256278.0,272424.0
192,76516.0,256306.0,272417.0
192,76556.0,256356.0,272455.0
192,76595.0,256397.0,272480.0
192,76597.0,256341.0,272430.0
192,76535.0,256195.0,272288.0
192,76467.0,256088.0,272190.0
192,76406.0,256011.0,272144.0
192,76343.0,255961.0,272118.0
192,76275.0,255905.0,272098.0
192,76219.0,255869.0,272076.0
192,76189.0,255886.0,272138.0
192,76169.0,255909.0,272168.0
192,76155.0,255921.0,272187.0
192,76137.0,255933.0,272201.0
192,76122.0,255934.0,272224.0
192,76121.0,255938.0,272224.0
192,76128.0,255962.0,272247.0
192,76143.0,255989.0,272267.0
192,76152.0,256001.0,272278.0
192,76170.0,256026.0,272294.0
192,76191.0,256047.0,272313.0
192,76224.0,256107.0,272336.0
192,76252.0,256136.0,272371.0
192,76288.0,256168.0,272377.0
193,76317.0,256207.0,272406.0
193,76348.0,256246.0,272407.0
193,76387.0,256270.0,272428.0
193,76421.0,256303.0,272422.0
193,76454.0,256328.0,272430.0
193,76488.0,256341.0,272413.0
193,76523.0,256334.0,272451.0
193,76482.0,256219.0,272344.0
193,76409.0,256110.0,272238.0
193,76343.0,256043.0,272184.0
193,76282.0,256006.0,272161.0
193,76221.0,255964.0,272156.0
193,76164.0,255940.0,272165.0
193,76124.0,255958.0,272195.0
193,76063.0,255867.0,272089.0
193,75880.0,255295.0,271338.0
193,75801.0,254655.0,270646.0
193,75921.0,254769.0,270892.0
193,76360.0,255962.0,272495.0
193,76692.0,257167.0,274019.0
193,76879.0,257919.0,274930.0
193,76886.0,258039.0,275021.0
193,76788.0,257839.0,274702.0
193,76671.0,257422.0,274106.0
193,76606.0,257062.0,273651.0
194,76574.0,256990.0,273497.0
194,76615.0,257100.0,273608.0
194,76677.0,257332.0,273853.0
194,76745.0,257546.0,274097.0
194,76787.0,257637.0,274172.0
194,76794.0,257581.0,274059.0
194,76760.0,257382.0,273758.0
194,76747.0,257205.0,273535.0
194,76697.0,257016.0,273305.0
194,76610.0,256822.0,273113.0
194,76527.0,256726.0,273014.0
194,76443.0,256627.0,272910.0
194,76348.0,256503.0,272787.0
194,76256.0,256374.0,272653.0
194,76192.0,256317.0,272590.0
194,76165.0,256333.0,272628.0
194,76154.0,256351.0,272656.0
194,76140.0,256351.0,272660.0
194,76140.0,256399.0,272712.0
194,76137.0,256407.0,272727.0
194,76121.0,256376.0,272660.0
194,76114.0,256330.0,272594.0
194,76116.0,256317.0,272590.0
194,76127.0,256359.0,272588.0
194,76130.0,256339.0,272553.0
195,76103.0,256246.0,272407.0
195,76062.0,256065.0,272131.0
195,76075.0,256039.0,272064.0
195,76139.0,256164.0,272216.0
195,76227.0,256386.0,272456.0
195,76320.0,256603.0,272702.0
195,76401.0,256777.0,272914.0
195,76467.0,256893.0,273016.0
195,76520.0,256952.0,273080.0
195,76546.0,256939.0,273054.0
195,76511.0,256800.0,272904.0
195,76421.0,256592.0,272673.0
195,76318.0,256380.0,272423.0
195,76261.0,256298.0,272361.0
195,76237.0,256339.0,272447.0
195,76221.0,256428.0,272605.0
195,76229.0,256578.0,272805.0
195,76238.0,256674.0,272947.0
195,76226.0,256704.0,272983.0
195,76214.0,256704.0,273007.0
195,76210.0,256723.0,273042.0
195,76255.0,256909.0,273280.0
195,76237.0,256951.0,273294.0
195,76176.0,256772.0,273020.0
195,76125.0,256586.0,272784.0
196,76094.0,256434.0,272559.0
196,76080.0,256361.0,272444.0
196,76089.0,256345.0,272391.0
196,76097.0,256327.0,272345.0
196,76110.0,256309.0,272297.0
196,76117.0,256285.0,272229.0
196,76128.0,256256.0,272180.0
196,76136.0,256230.0,272130.0
196,76085.0,256074.0,271954.0
196,75971.0,255800.0,271657.0
196,75835.0,255517.0,271329.0
196,75693.0,255229.0,271022.0
196,75573.0,255007.0,270790.0
196,75465.0,254848.0,270625.0
196,75379.0,254761.0,270553.0
196,75315.0,254674.0,270484.0
196,75253.0,254618.0,270420.0
196,75185.0,254485.0,270303.0
196,75102.0,254333.0,270112.0
196,75029.0,254166.0,269930.0
196,74991.0,254111.0,269882.0
196,74981.0,254120.0,269912.0
196,74980.0,254128.0,269949.0
196,74971.0,254129.0,269948.0
196,74964.0,254106.0,269932.0
197,74955.0,254080.0,269897.0
197,74947.0,254037.0,269853.0
197,74941.0,254011.0,269809.0
197,74946.0,253989.0,269786.0
197,74943.0,253947.0,269765.0
197,74863.0,253791.0,269637.0
197,74761.0,253630.0,269531.0
197,74664.0,253529.0,269513.0
197,74555.0,253447.0,269502.0
197,74449.0,253337.0,269493.0
197,74347.0,253273.0,269498.0
197,74264.0,253206.0,269511.0
197,74213.0,253197.0,269567.0
197,74162.0,253158.0,269575.0
197,74122.0,253120.0,269607.0
197,74082.0,253088.0,269617.0
197,74059.0,253079.0,269640.0
197,74046.0,253066.0,269666.0
197,74040.0,253067.0,269689.0
197,74043.0,253062.0,269706.0
197,74046.0,253053.0,269710.0
197,74053.0,253054.0,269723.0
197,74062.0,253034.0,269721.0
197,74081.0,253051.0,269735.0
197,74101.0,253054.0,269732.0
198,74125.0,253061.0,269739.0
198,74163.0,253095.0,269768.0
198,74190.0,253081.0,269779.0
198,74137.0,252943.0,269671.0
198,74033.0,252781.0,269551.0
198,73922.0,252660.0,269509.0
198,73824.0,252548.0,269478.0
198,73714.0,252438.0,269438.0
198,73611.0,252328.0,269392.0
198,73523.0,252248.0,269364.0
198,73475.0,252237.0,269419.0
198,73447.0,252217.0,269429.0
198,73418.0,252182.0,269428.0
198,73395.0,252157.0,269433.0
198,73383.0,252143.0,269444.0
198,73375.0,252131.0,269437.0
198,73378.0,252108.0,269419.0
198,73380.0,252096.0,269388.0
198,73392.0,252077.0,269360.0
198,73397.0,252050.0,269294.0
198,73423.0,252068.0,269305.0
198,73461.0,252103.0,269360.0
198,73516.0,252184.0,269418.0
198,73555.0,252215.0,269417.0
198,73576.0,252199.0,269360.0
199,73613.0,252190.0,269321.0
199,73662.0,252233.0,269335.0
199,73702.0,252246.0,269307.0
199,73750.0,252258.0,269299.0
199,73810.0,252328.0,269332.0
199,73873.0,252386.0,269410.0
199,73852.0,252293.0,269323.0
199,73765.0,252131.0,269172.0
199,73673.0,252000.0,269047.0
199,73593.0,251905.0,268987.0
199,73511.0,251806.0,268925.0
199,73428.0,251705.0,268854.0
199,73366.0,251636.0,268820.0
199,73336.0,251637.0,268817.0
199,73316.0,251615.0,268806.0
199,73305.0,251604.0,268795.0
199,73292.0,251584.0,268786.0
199,73296.0,251590.0,268794.0
199,73303.0,251597.0,268804.0
199,73314.0,251616.0,268783.0
199,73332.0,251624.0,268773.0
199,73360.0,251636.0,268779.0
199,73389.0,251650.0,268764.0
199,73429.0,251696.0,268780.0
199,73479.0,251760.0,268829.0
200,73520.0,251801.0,268833.0
200,73565.0,251833.0,268841.0
200,73606.0,251866.0,268837.0
200,73654.0,251919.0,268835.0
200,73700.0,251938.0,268827.0
200,73754.0,251995.0,268863.0
200,73809.0,252029.0,268873.0
200,73819.0,251930.0,268686.0
200,73876.0,252018.0,268822.0
200,73862.0,251956.0,268779.0
200,73811.0,251886.0,268701.0
200,73766.0,251839.0,268686.0
200,73723.0,251818.0,268687.0
200,73684.0,251780.0,268677.0
200,73639.0,251773.0,268682.0
200,73621.0,251790.0,268723.0
200,73630.0,251824.0,268770.0
200,73631.0,251839.0,268775.0
200,73621.0,251808.0,268755.0
200,73621.0,251804.0,268746.0
200,73637.0,251849.0,268806.0
200,73676.0,251991.0,268990.0
200,73718.0,252107.0,269095.0
200,73756.0,252185.0,269146.0
200,73796.0,252242.0,269201.0
201,73846.0,252324.0,269276.0
201,73904.0,252409.0,269354.0
201,73939.0,252420.0,269322.0
201,73948.0,252327.0,269174.0
201,73939.0,252133.0,268889.0
201,73956.0,252094.0,268820.0
201,73972.0,252099.0,268804.0
201,74015.0,252180.0,268879.0
201,74067.0,252275.0,269006.0
201,74056.0,252228.0,268946.0
201,74037.0,252179.0,268910.0
201,74018.0,252176.0,268914.0
201,73907.0,251928.0,268605.0
201,73700.0,251136.0,267651.0
201,73612.0,250684.0,267178.0
201,73992.0,251596.0,268434.0
201,74538.0,253236.0,270564.0
201,74828.0,254284.0,271870.0
201,74950.0,254744.0,272418.0
201,74788.0,254446.0,271918.0
201,74459.0,253480.0,270540.0
201,74198.0,252369.0,269129.0
201,74058.0,251856.0,268440.0
201,74107.0,251997.0,268592.0
201,74230.0,252407.0,269082.0
202,74307.0,252676.0,269357.0
202,74347.0,252744.0,269427.0
202,74316.0,252627.0,269224.0
202,74238.0,252327.0,268797.0
202,74168.0,252043.0,268391.0
202,74184.0,251995.0,268301.0
202,74231.0,252054.0,268397.0
202,74210.0,252016.0,268368.0
202,74163.0,251952.0,268340.0
202,74090.0,251879.0,268252.0
202,73990.0,251671.0,268037.0
202,73859.0,251395.0,267697.0
202,73769.0,251227.0,267504.0
202,73747.0,251228.0,267545.0
202,73773.0,251330.0,267704.0
202,73784.0,251374.0,267762.0
202,73829.0,251499.0,267972.0
202,73892.0,251725.0,268302.0
202,74004.0,252059.0,268750.0
202,74118.0,252381.0,269156.0
202,74236.0,252675.0,269523.0
202,74398.0,253086.0,270044.0
202,74630.0,253678.0,270818.0
202,74817.0,254131.0,271374.0
202,74902.0,254183.0,271451.0
203,75017.0,254425.0,271757.0
203,75129.0,254677.0,272048.0
203,75217.0,254827.0,272217.0
203,75324.0,255025.0,272426.0
203,75439.0,255256.0,272661.0
203,75546.0,255462.0,272901.0
203,75607.0,255558.0,273018.0
203,75614.0,255550.0,273010.0
203,75624.0,255586.0,273080.0
203,75646.0,255683.0,273236.0
203,75664.0,255782.0,273388.0
203,75680.0,255871.0,273536.0
203,75691.0,255964.0,273655.0
203,75729.0,256100.0,273840.0
203,75780.0,256257.0,274028.0
203,75833.0,256350.0,274178.0
203,75859.0,256411.0,274253.0
203,75885.0,256439.0,274288.0
203,75927.0,256522.0,274387.0
203,75971.0,256620.0,274476.0
203,76020.0,256694.0,274555.0
203,76072.0,256760.0,274619.0
203,76117.0,256827.0,274649.0
203,76159.0,256849.0,274640.0
203,76195.0,256865.0,274625.0
204,76240.0,256901.0,274627.0
204,76289.0,256928.0,274631.0
204,76327.0,256950.0,274626.0
204,76370.0,256992.0,274611.0
204,76410.0,256999.0,274605.0
204,76463.0,257041.0,274599.0
204,76511.0,257089.0,274619.0
204,76547.0,257108.0,274644.0
204,76523.0,257004.0,274523.0
204,76468.0,256882.0,274402.0
204,76434.0,256826.0,274363.0
204,76403.0,256821.0,274380.0
204,76372.0,256803.0,274386.0
204,76342.0,256790.0,274392.0
204,76335.0,256841.0,274440.0
204,76338.0,256867.0,274484.0
204,76339.0,256886.0,274522.0
204,76337.0,256902.0,274549.0
204,76256.0,256596.0,274170.0
204,76003.0,255766.0,273119.0
204,75743.0,254930.0,272067.0
204,75619.0,254528.0,271549.0
204,75619.0,254507.0,271521.0
204,75656.0,254585.0,271612.0
204,75689.0,254668.0,271685.0
205,75713.0,254697.0,271704.0
205,75744.0,254734.0,271717.0
205,75772.0,254756.0,271727.0
205,75822.0,254825.0,271792.0
205,75842.0,254840.0,271802.0
205,75812.0,254737.0,271696.0
205,75756.0,254634.0,271629.0
205,75713.0,254625.0,271650.0
205,75667.0,254613.0,271672.0
205,75620.0,254589.0,271691.0
205,75581.0,254598.0,271745.0
205,75573.0,254666.0,271858.0
205,75580.0,254728.0,271951.0
205,75569.0,254741.0,271979.0
205,75571.0,254792.0,272030.0
205,75584.0,254848.0,272129.0
205,75610.0,254931.0,272231.0
205,75640.0,255002.0,272323.0
205,75669.0,255058.0,272379.0
205,75694.0,255084.0,272385.0
205,75646.0,254836.0,272071.0
205,75765.0,255096.0,272430.0
205,75874.0,255393.0,272822.0
205,75925.0,255505.0,272993.0
205,75962.0,255597.0,273071.0
206,75957.0,255545.0,272985.0
206,75901.0,255329.0,272737.0
206,75792.0,255069.0,272456.0
206,75719.0,254971.0,272389.0
206,75675.0,254969.0,272473.0
206,75566.0,254836.0,272300.0
206,75361.0,254324.0,271687.0
206,75102.0,253650.0,270839.0
206,74826.0,252871.0,269836.0
206,74582.0,252138.0,268891.0
206,74379.0,251495.0,268110.0
206,74043.0,250528.0,266850.0
206,73725.0,249602.0,265657.0
206,73555.0,249111.0,265036.0
206,73414.0,248679.0,264469.0
206,73349.0,248439.0,264192.0
206,73381.0,248477.0,264272.0
206,73442.0,248595.0,264442.0
206,73426.0,248501.0,264307.0
206,73409.0,248368.0,264137.0
206,73381.0,248230.0,263927.0
206,73483.0,248443.0,264254.0
206,73592.0,248699.0,264595.0
206,73572.0,248648.0,264565.0
206,73500.0,248524.0,264453.0
207,73435.0,248464.0,264430.0
207,73420.0,248577.0,264619.0
207,73399.0,248654.0,264784.0
207,73427.0,248885.0,265135.0
207,73478.0,249134.0,265544.0
207,73492.0,249266.0,265727.0
207,73495.0,249320.0,265776.0
207,73489.0,249322.0,265798.0
207,73513.0,249409.0,265918.0
207,73567.0,249577.0,266149.0
207,73610.0,249687.0,266283.0
207,73649.0,249758.0,266380.0
207,73615.0,249590.0,266170.0
207,73633.0,249585.0,266157.0
207,73660.0,249588.0,266189.0
207,73697.0,249630.0,266249.0
207,73736.0,249688.0,266314.0
207,73797.0,249790.0,266476.0
207,73790.0,249714.0,266388.0
207,73711.0,249522.0,266179.0
207,73650.0,249437.0,266138.0
207,73646.0,249529.0,266342.0
207,73600.0,249529.0,266395.0
207,73579.0,249591.0,266575.0
207,73636.0,249850.0,266985.0
208,73749.0,250270.0,267585.0
208,73820.0,250518.0,267955.0
208,73847.0,250631.0,268124.0
208,73866.0,250732.0,268257.0
208,73903.0,250859.0,268456.0
208,73961.0,251034.0,268685.0
208,74001.0,251118.0,268795.0
208,74073.0,251301.0,269036.0
208,74246.0,251781.0,269683.0
208,74435.0,252286.0,270357.0
208,74559.0,252603.0,270748.0
208,74626.0,252747.0,270906.0
208,74886.0,253486.0,271907.0
208,75592.0,255742.0,274891.0
208,76238.0,257967.0,277737.0
208,76728.0,259667.0,279952.0
208,76873.0,260456.0,280892.0
208,76934.0,260749.0,281260.0
208,76955.0,260941.0,281508.0
208,77095.0,261436.0,282222.0
208,77040.0,261356.0,282063.0
208,77081.0,261473.0,282189.0
208,77045.0,261338.0,281987.0
208,76971.0,261071.0,281601.0
208,76869.0,260785.0,281187.0
209,76797.0,260478.0,280742.0
209,76724.0,260275.0,280442.0
209,76646.0,259950.0,279972.0
209,76546.0,259614.0,279479.0
209,76367.0,259022.0,278651.0
209,76236.0,258457.0,277914.0
209,76116.0,258051.0,277312.0
209,75760.0,257023.0,275842.0
209,75594.0,256435.0,275057.0
209,75534.0,256299.0,274916.0
209,75424.0,256056.0,274631.0
209,75189.0,255482.0,273905.0
209,75130.0,255445.0,273901.0
209,74578.0,253966.0,271903.0
209,73487.0,251027.0,267864.0
209,72183.0,247587.0,263043.0
209,71183.0,244915.0,259403.0
209,70714.0,243675.0,257751.0
209,70550.0,243263.0,257220.0
209,70511.0,243150.0,257099.0
209,70472.0,243064.0,257002.0
209,70496.0,243152.0,257109.0
209,70701.0,243677.0,257886.0
209,71226.0,245067.0,259814.0
209,71984.0,247137.0,262666.0
210,72998.0,249957.0,266530.0
210,74120.0,253108.0,270810.0
210,75027.0,255665.0,274283.0
210,75609.0,257344.0,276473.0
210,75991.0,258421.0,277881.0
210,76232.0,259059.0,278669.0
210,76406.0,259494.0,279194.0
210,76530.0,259767.0,279516.0
210,76625.0,259963.0,279698.0
210,76683.0,260019.0,279724.0
210,76702.0,260004.0,279696.0
210,76683.0,259928.0,279619.0
210,76655.0,259874.0,279598.0
210,76619.0,259843.0,279593.0
210,76583.0,259818.0,279601.0
210,76562.0,259834.0,279682.0
210,76547.0,259903.0,279794.0
210,76562.0,260040.0,279990.0
210,76584.0,260135.0,280114.0
210,76588.0,260164.0,280144.0
210,76509.0,259802.0,279666.0
210,76181.0,258370.0,277695.0
210,76373.0,258484.0,277678.0
210,76566.0,258863.0,278115.0
210,76936.0,259954.0,279594.0
211,77107.0,260749.0,280639.0
211,77208.0,261308.0,281350.0
211,77211.0,261530.0,281539.0
211,77136.0,261322.0,281193.0
211,77115.0,260943.0,280699.0
211,77090.0,260669.0,280324.0
211,77115.0,260716.0,280364.0
211,77157.0,260855.0,280504.0
211,77192.0,260998.0,280633.0
211,77240.0,261112.0,280712.0
211,77210.0,260915.0,280393.0
211,77227.0,260842.0,280307.0
211,77201.0,260625.0,280062.0
211,77109.0,260311.0,279681.0
211,77040.0,260122.0,279496.0
211,77013.0,260116.0,279521.0
211,76989.0,260143.0,279569.0
211,76930.0,260072.0,279505.0
211,76865.0,259933.0,279332.0
211,76808.0,259800.0,279142.0
211,76765.0,259652.0,278959.0
211,76703.0,259413.0,278644.0
211,76687.0,259342.0,278575.0
211,76681.0,259336.0,278548.0
211,76689.0,259363.0,278562.0
212,76723.0,259448.0,278645.0
212,76758.0,259510.0,278724.0
212,76787.0,259567.0,278761.0
212,76817.0,259606.0,278769.0
212,76851.0,259643.0,278785.0
212,76891.0,259680.0,278822.0
212,76942.0,259762.0,278873.0
212,76994.0,259836.0,278927.0
212,77040.0,259908.0,278980.0
212,77089.0,259954.0,278985.0
212,77131.0,259987.0,278964.0
212,77152.0,259931.0,278829.0
212,77210.0,259955.0,278851.0
212,77277.0,260054.0,278981.0
212,77295.0,260046.0,278988.0
212,77274.0,259968.0,278932.0
212,77253.0,259945.0,278928.0
212,77236.0,259939.0,278946.0
212,77220.0,259945.0,278984.0
212,77197.0,259943.0,278984.0
212,77184.0,259965.0,279028.0
212,77188.0,260001.0,279084.0
212,77191.0,260018.0,279105.0
212,77195.0,260042.0,279131.0
212,77204.0,260055.0,279150.0
213,77213.0,260085.0,279168.0
213,77230.0,260132.0,279183.0
213,77246.0,260132.0,279191.0
213,77269.0,260133.0,279186.0
213,77288.0,260156.0,279159.0
213,77308.0,260137.0,279109.0
213,77333.0,260123.0,279079.0
213,77344.0,260092.0,278986.0
213,77371.0,260099.0,278972.0
213,77397.0,260100.0,278941.0
213,77423.0,260110.0,278907.0
213,77450.0,260109.0,278867.0
213,77491.0,260124.0,278843.0
213,77526.0,260136.0,278831.0
213,77572.0,260188.0,278856.0
213,77616.0,260222.0,278867.0
213,77652.0,260217.0,278867.0
213,77632.0,260087.0,278742.0
213,77594.0,259979.0,278638.0
213,77558.0,259907.0,278591.0
213,77510.0,259828.0,278530.0
213,77442.0,259669.0,278376.0
213,77399.0,259600.0,278343.0
213,77381.0,259627.0,278419.0
213,77370.0,259671.0,278484.0
214,77359.0,259675.0,278534.0
214,77344.0,259711.0,278550.0
214,77334.0,259702.0,278559.0
214,77328.0,259717.0,278579.0
214,77326.0,259722.0,278590.0
214,77329.0,259721.0,278586.0
214,77333.0,259714.0,278579.0
214,77346.0,259717.0,278565.0
214,77359.0,259732.0,278555.0
214,77378.0,259756.0,278569.0
214,77406.0,259764.0,278564.0
214,77429.0,259775.0,278553.0
214,77455.0,259786.0,278540.0
214,77495.0,259845.0,278594.0
214,77539.0,259905.0,278631.0
214,77579.0,259940.0,278688.0
214,77583.0,259888.0,278669.0
214,77527.0,259735.0,278515.0
214,77441.0,259511.0,278316.0
214,77382.0,259465.0,278340.0
214,77320.0,259417.0,278346.0
214,77249.0,259386.0,278352.0
214,77199.0,259370.0,278406.0
214,77176.0,259407.0,278476.0
214,77157.0,259412.0,278529.0
215,77138.0,259446.0,278598.0
215,77125.0,259441.0,278625.0
215,77114.0,259460.0,278649.0
215,77119.0,259472.0,278682.0
215,77118.0,259470.0,278688.0
215,77125.0,259475.0,278678.0
215,77139.0,259484.0,278684.0
215,77158.0,259488.0,278700.0
215,77179.0,259522.0,278688.0
215,77197.0,259514.0,278652.0
215,77216.0,259504.0,278620.0
215,77235.0,259491.0,278569.0
215,77255.0,259455.0,278493.0
215,77265.0,259396.0,278397.0
215,77273.0,259345.0,278291.0
215,77291.0,259317.0,278208.0
215,77298.0,259242.0,278149.0
215,77251.0,259107.0,278058.0
215,77170.0,258959.0,277921.0
215,77083.0,258839.0,277840.0
215,76998.0,258751.0,277809.0
215,76919.0,258676.0,277793.0
215,76837.0,258589.0,277761.0
215,76779.0,258505.0,277698.0
215,76757.0,258527.0,277762.0
216,76747.0,258557.0,277846.0
216,76732.0,258598.0,277909.0
216,76731.0,258629.0,277979.0
216,76738.0,258659.0,278030.0
216,76754.0,258695.0,278068.0
216,76772.0,258735.0,278114.0
216,76799.0,258763.0,278133.0
216,76826.0,258799.0,278159.0
216,76864.0,258846.0,278192.0
216,76905.0,258899.0,278218.0
216,76914.0,258801.0,278050.0
216,76953.0,258832.0,278071.0
216,76989.0,258878.0,278121.0
216,77032.0,258930.0,278126.0
216,77077.0,258971.0,278136.0
216,77121.0,259016.0,278151.0
216,77172.0,259082.0,278188.0
216,77248.0,259184.0,278268.0
216,77308.0,259261.0,278366.0
216,77308.0,259242.0,278384.0
216,77254.0,259124.0,278321.0
216,77188.0,259044.0,278278.0
216,77117.0,258982.0,278251.0
216,77052.0,258909.0,278242.0
216,76987.0,258847.0,278201.0
217,76916.0,258732.0,278065.0
217,76905.0,258784.0,278179.0
217,76898.0,258835.0,278270.0
217,76890.0,258874.0,278344.0
217,76891.0,258926.0,278402.0
217,76899.0,258971.0,278445.0
217,76906.0,259013.0,278469.0
217,76919.0,259029.0,278484.0
217,76941.0,259060.0,278502.0
217,76972.0,259099.0,278523.0
217,77009.0,259147.0,278557.0
217,77049.0,259200.0,278591.0
217,77084.0,259257.0,278601.0
217,77121.0,259277.0,278618.0
217,77159.0,259322.0,278600.0
217,77195.0,259322.0,278582.0
217,77233.0,259354.0,278561.0
217,77274.0,259367.0,278538.0
217,77316.0,259405.0,278535.0
217,77368.0,259471.0,278564.0
217,77418.0,259492.0,278606.0
217,77435.0,259488.0,278587.0
217,77391.0,259357.0,278490.0
217,77332.0,259290.0,278414.0
217,77277.0,259207.0,278397.0
218,77226.0,259175.0,278370.0
218,77176.0,259136.0,278348.0
218,77134.0,259119.0,278370.0
218,77119.0,259147.0,278418.0
218,77105.0,259151.0,278428.0
218,77097.0,259169.0,278456.0
218,77087.0,259177.0,278458.0
218,77086.0,259180.0,278475.0
218,77089.0,259191.0,278482.0
218,77097.0,259218.0,278488.0
218,77110.0,259228.0,278483.0
218,77127.0,259255.0,278483.0
218,77149.0,259270.0,278472.0
218,77174.0,259286.0,278481.0
218,77200.0,259319.0,278469.0
218,77224.0,259331.0,278463.0
218,77254.0,259346.0,278448.0
218,77290.0,259387.0,278438.0
218,77316.0,259410.0,278441.0
218,77366.0,259459.0,278466.0
218,77388.0,259443.0,278460.0
218,77354.0,259345.0,278390.0
218,77280.0,259131.0,278163.0
218,77244.0,259116.0,278207.0
218,77192.0,259117.0,278235.0
219,77148.0,259107.0,278243.0
219,77115.0,259103.0,278261.0
219,77099.0,259155.0,278344.0
219,77097.0,259197.0,278386.0
219,77090.0,259223.0,278430.0
219,77087.0,259232.0,278456.0
219,77085.0,259240.0,278444.0
219,77081.0,259230.0,278452.0
219,77086.0,259249.0,278440.0
219,77096.0,259265.0,278420.0
219,77106.0,259234.0,278385.0
219,77118.0,259250.0,278365.0
219,77137.0,259268.0,278358.0
219,77165.0,259307.0,278373.0
219,77190.0,259322.0,278360.0
219,77223.0,259357.0,278357.0
219,77261.0,259389.0,278391.0
219,77303.0,259451.0,278406.0
219,77355.0,259530.0,278475.0
219,77410.0,259611.0,278556.0
219,77438.0,259606.0,278572.0
219,77411.0,259528.0,278515.0
219,77369.0,259462.0,278456.0
219,77328.0,259412.0,278447.0
219,77282.0,259399.0,278457.0
220,77232.0,259351.0,278456.0
220,77191.0,259354.0,278478.0
220,77164.0,259377.0,278542.0
220,77162.0,259427.0,278594.0
220,77162.0,259450.0,278656.0
220,77168.0,259511.0,278746.0
220,77177.0,259564.0,278807.0
220,77186.0,259611.0,278862.0
220,77210.0,259679.0,278937.0
220,77236.0,259730.0,278990.0
220,77254.0,259765.0,279028.0
220,77280.0,259819.0,279054.0
220,77312.0,259865.0,279101.0
220,77357.0,259939.0,279180.0
220,77401.0,260027.0,279263.0
220,77443.0,260090.0,279297.0
220,77482.0,260157.0,279348.0
220,77524.0,260204.0,279371.0
220,77562.0,260246.0,279401.0
220,77599.0,260275.0,279387.0
220,77631.0,260274.0,279368.0
220,77628.0,260216.0,279296.0
220,77590.0,260093.0,279185.0
220,77536.0,259992.0,279105.0
220,77475.0,259895.0,279022.0
221,77421.0,259833.0,278978.0
221,77361.0,259776.0,278950.0
221,77304.0,259738.0,278925.0
221,77271.0,259748.0,278943.0
221,77249.0,259732.0,278940.0
221,77244.0,259769.0,279016.0
221,77247.0,259828.0,279087.0
221,77244.0,259849.0,279109.0
221,77227.0,259803.0,279046.0
221,77040.0,259130.0,278122.0
221,76943.0,258245.0,277035.0
221,77029.0,258312.0,277095.0
221,77435.0,259402.0,278499.0
221,77839.0,260771.0,280240.0
221,78055.0,261608.0,281285.0
221,78114.0,261910.0,281635.0
221,77997.0,261674.0,281254.0
221,77816.0,261100.0,280412.0
221,77737.0,260493.0,279634.0
221,77672.0,260204.0,279221.0
221,77716.0,260353.0,279392.0
221,77793.0,260640.0,279733.0
221,77784.0,260646.0,279750.0
221,77703.0,260451.0,279539.0
221,77653.0,260373.0,279487.0
222,77548.0,260127.0,279217.0
222,77401.0,259787.0,278779.0
222,77309.0,259509.0,278452.0
222,77356.0,259661.0,278721.0
222,77431.0,260029.0,279179.0
222,77490.0,260327.0,279586.0
222,77469.0,260336.0,279585.0
222,77434.0,260218.0,279421.0
222,77417.0,260175.0,279354.0
222,77472.0,260353.0,279547.0
222,77509.0,260509.0,279740.0
222,77470.0,260356.0,279517.0
222,77421.0,260054.0,279108.0
222,77369.0,259846.0,278833.0
222,77395.0,259914.0,278875.0
222,77449.0,260080.0,279089.0
222,77501.0,260242.0,279241.0
222,77530.0,260241.0,279207.0
222,77521.0,260150.0,279066.0
222,77533.0,260118.0,278962.0
222,77567.0,260127.0,278964.0
222,77568.0,260081.0,278897.0
222,77545.0,260012.0,278862.0
222,77512.0,259994.0,278898.0
222,77454.0,259963.0,278864.0
223,77411.0,259920.0,278878.0
223,77335.0,259849.0,278828.0
223,77273.0,259804.0,278795.0
223,77230.0,259801.0,278816.0
223,77202.0,259806.0,278819.0
223,77180.0,259799.0,278821.0
223,77178.0,259854.0,278882.0
223,77180.0,259886.0,278930.0
223,77185.0,259909.0,278957.0
223,77192.0,259950.0,278995.0
223,77208.0,259989.0,279034.0
223,77229.0,260011.0,279038.0
223,77223.0,259987.0,278977.0
223,77217.0,259931.0,278880.0
223,77214.0,259884.0,278777.0
223,77212.0,259810.0,278677.0
223,77222.0,259785.0,278612.0
223,77249.0,259829.0,278631.0
223,77310.0,259947.0,278748.0
223,77348.0,259987.0,278800.0
223,77327.0,259873.0,278668.0
223,77228.0,259585.0,278316.0
223,77173.0,259474.0,278265.0
223,77130.0,259506.0,278319.0
223,77098.0,259540.0,278403.0
224,77062.0,259554.0,278465.0
224,77030.0,259569.0,278487.0
224,77013.0,259597.0,278522.0
224,76995.0,259569.0,278505.0
224,76989.0,259594.0,278548.0
224,76989.0,259628.0,278606.0
224,76986.0,259656.0,278605.0
224,76991.0,259661.0,278619.0
224,76995.0,259649.0,278579.0
224,77005.0,259661.0,278591.0
224,77037.0,259714.0,278642.0
224,77054.0,259717.0,278643.0
224,77071.0,259760.0,278655.0
224,77101.0,259781.0,278671.0
224,77125.0,259792.0,278667.0
224,77157.0,259828.0,278662.0
224,77189.0,259847.0,278697.0
224,77152.0,259718.0,278581.0
224,77093.0,259620.0,278490.0
224,77042.0,259578.0,278463.0
224,76970.0,259477.0,278410.0
224,76891.0,259360.0,278291.0
224,76825.0,259302.0,278239.0
224,76780.0,259278.0,278240.0
224,76761.0,259282.0,278265.0
225,76740.0,259269.0,278245.0
225,76728.0,259281.0,278286.0
225,76733.0,259312.0,278348.0
225,76750.0,259372.0,278400.0
225,76756.0,259377.0,278406.0
225,76767.0,259390.0,278419.0
225,76795.0,259446.0,278459.0
225,76810.0,259447.0,278454.0
225,76808.0,259392.0,278357.0
225,76809.0,259286.0,278207.0
225,76840.0,259341.0,278256.0
225,76851.0,259367.0,278241.0
225,76878.0,259377.0,278225.0
225,76919.0,259412.0,278252.0
225,76931.0,259381.0,278226.0
225,76895.0,259279.0,278153.0
225,76847.0,259241.0,278137.0
225,76797.0,259200.0,278137.0
225,76720.0,259106.0,278072.0
225,76661.0,259064.0,278057.0
225,76622.0,259086.0,278146.0
225,76599.0,259152.0,278230.0
225,76620.0,259278.0,278429.0
225,76594.0,259252.0,278388.0
225,76533.0,259110.0,278187.0
226,76472.0,258939.0,277983.0
226,76403.0,258739.0,277702.0
226,76335.0,258531.0,277412.0
226,76291.0,258387.0,277188.0
226,76242.0,258180.0,276912.0
226,76162.0,257937.0,276546.0
226,76091.0,257650.0,276151.0
226,75806.0,256779.0,274928.0
226,75218.0,255020.0,272518.0
226,74658.0,253319.0,270199.0
226,74175.0,251895.0,268276.0
226,73778.0,250714.0,266674.0
226,73460.0,249753.0,265403.0
226,73273.0,249198.0,264755.0
226,73055.0,248656.0,264081.0
226,72790.0,248037.0,263289.0
226,72544.0,247496.0,262606.0
226,72345.0,247091.0,262090.0
226,72248.0,246931.0,261939.0
226,72212.0,246912.0,261935.0
226,72317.0,247262.0,262408.0
226,72415.0,247559.0,262814.0
226,72629.0,248159.0,263632.0
226,73107.0,249477.0,265451.0
226,73997.0,252028.0,268923.0
227,74927.0,254636.0,272438.0
227,75567.0,256464.0,274837.0
227,75918.0,257445.0,276090.0
227,76111.0,257958.0,276744.0
227,76251.0,258276.0,277120.0
227,76331.0,258442.0,277300.0
227,76367.0,258492.0,277303.0
227,76408.0,258496.0,277253.0
227,76468.0,258575.0,277306.0
227,76560.0,258788.0,277565.0
227,76618.0,258869.0,277664.0
227,76672.0,258880.0,277746.0
227,76661.0,258905.0,277788.0
227,76711.0,259068.0,278069.0
227,76824.0,259471.0,278601.0
227,76897.0,259840.0,279105.0
227,76998.0,260184.0,279590.0
227,77027.0,260386.0,279834.0
227,77025.0,260401.0,279817.0
227,76999.0,260304.0,279669.0
227,76949.0,260123.0,279434.0
227,76943.0,260072.0,279359.0
227,76936.0,260064.0,279304.0
227,76971.0,260116.0,279352.0
227,77023.0,260254.0,279522.0
228,77083.0,260443.0,279741.0
228,77165.0,260692.0,280034.0
228,77255.0,260912.0,280323.0
228,77323.0,261074.0,280525.0
228,77360.0,261156.0,280577.0
228,77405.0,261196.0,280608.0
228,77399.0,261120.0,280475.0
228,77353.0,260912.0,280187.0
228,77258.0,260598.0,279812.0
228,77152.0,260330.0,279462.0
228,77082.0,260152.0,279244.0
228,77071.0,260197.0,279330.0
228,77061.0,260245.0,279386.0
228,77086.0,260382.0,279591.0
228,77122.0,260534.0,279777.0
228,77134.0,260561.0,279809.0
228,77158.0,260590.0,279847.0
228,77148.0,260616.0,279863.0
228,77165.0,260617.0,279879.0
228,77167.0,260619.0,279855.0
228,77198.0,260671.0,279893.0
228,77236.0,260748.0,279962.0
228,77176.0,260567.0,279662.0
228,77132.0,260384.0,279385.0
228,77122.0,260230.0,279165.0
229,77134.0,260176.0,279100.0
229,77216.0,260354.0,279297.0
229,77279.0,260513.0,279476.0
229,77282.0,260453.0,279396.0
229,77252.0,260334.0,279272.0
229,77162.0,260148.0,279064.0
229,77023.0,259830.0,278655.0
229,76902.0,259523.0,278266.0
229,76755.0,259049.0,277711.0
229,76763.0,259113.0,277867.0
229,76790.0,259363.0,278204.0
229,76768.0,259397.0,278229.0
229,76750.0,259375.0,278182.0
229,76724.0,259274.0,278056.0
229,76699.0,259171.0,277887.0
229,76703.0,259147.0,277832.0
229,76744.0,259214.0,277924.0
229,76781.0,259301.0,278004.0
229,76822.0,259385.0,278081.0
229,76863.0,259454.0,278139.0
229,76889.0,259459.0,278101.0
229,76899.0,259414.0,278003.0
229,76898.0,259334.0,277843.0
229,76885.0,259167.0,277571.0
229,76864.0,258990.0,277317.0
230,76856.0,258920.0,277212.0
230,76870.0,258890.0,277168.0
230,76878.0,258862.0,277103.0
230,76803.0,258587.0,276798.0
230,76720.0,258375.0,276540.0
230,76669.0,258306.0,276449.0
230,76630.0,258246.0,276401.0
230,76567.0,258128.0,276260.0
230,76397.0,257636.0,275650.0
230,76234.0,257288.0,275221.0
230,76022.0,256708.0,274434.0
230,75861.0,255880.0,273446.0
230,75867.0,255763.0,273319.0
230,76305.0,256933.0,274852.0
230,76731.0,258305.0,276604.0
230,76997.0,259222.0,277786.0
230,77168.0,259779.0,278478.0
230,77133.0,259795.0,278401.0
230,76948.0,259342.0,277690.0
230,76802.0,258707.0,276837.0
230,76769.0,258285.0,276301.0
230,76799.0,258323.0,276338.0
230,76938.0,258738.0,276843.0
230,77066.0,259162.0,277346.0
230,77131.0,259379.0,277570.0
231,77138.0,259365.0,277490.0
231,77062.0,259015.0,277028.0
231,76884.0,258369.0,276216.0
231,76736.0,257904.0,275646.0
231,76661.0,257719.0,275462.0
231,76658.0,257809.0,275603.0
231,76621.0,257828.0,275624.0
231,76569.0,257753.0,275546.0
231,76442.0,257514.0,275187.0
231,76338.0,257214.0,274799.0
231,76273.0,256981.0,274517.0
231,76262.0,256968.0,274505.0
231,76285.0,257110.0,274661.0
231,76267.0,257090.0,274644.0
231,76272.0,257079.0,274607.0
231,76233.0,256974.0,274436.0
231,76116.0,256653.0,273948.0
231,75996.0,256268.0,273399.0
231,75927.0,256025.0,273054.0
231,75920.0,255963.0,272954.0
231,75991.0,256132.0,273157.0
231,76112.0,256410.0,273522.0
231,76244.0,256754.0,273958.0
231,76349.0,257061.0,274306.0
231,76429.0,257243.0,274510.0
232,76483.0,257320.0,274589.0
232,76501.0,257275.0,274561.0
232,76419.0,257039.0,274270.0
232,76325.0,256827.0,274017.0
232,76217.0,256600.0,273759.0
232,76105.0,256373.0,273488.0
232,76015.0,256220.0,273311.0
232,75942.0,256106.0,273190.0
232,75878.0,256053.0,273098.0
232,75834.0,255992.0,273030.0
232,75793.0,255912.0,272941.0
232,75771.0,255902.0,272925.0
232,75727.0,255802.0,272809.0
232,75696.0,255760.0,272717.0
232,75710.0,255799.0,272768.0
232,75734.0,255851.0,272844.0
232,75793.0,255980.0,273008.0
232,75865.0,256146.0,273224.0
232,75969.0,256402.0,273540.0
232,76241.0,257111.0,274456.0
232,76462.0,257754.0,275285.0
232,76591.0,258116.0,275688.0
232,76696.0,258299.0,275879.0
232,76768.0,258383.0,275964.0
232,76866.0,258619.0,276207.0
233,76940.0,258760.0,276349.0
233,76965.0,258761.0,276312.0
233,76970.0,258673.0,276237.0
233,76912.0,258486.0,276012.0
233,76875.0,258375.0,275883.0
233,76874.0,258367.0,275903.0
233,76866.0,258354.0,275930.0
233,76861.0,258369.0,275967.0
233,76881.0,258425.0,276037.0
233,76886.0,258418.0,276044.0
233,76909.0,258467.0,276098.0
233,76924.0,258499.0,276134.0
233,76950.0,258580.0,276224.0
233,76983.0,258652.0,276282.0
233,77021.0,258695.0,276345.0
233,77077.0,258829.0,276482.0
233,77149.0,258969.0,276651.0
233,77187.0,259026.0,276699.0
233,77210.0,259054.0,276706.0
233,77242.0,259020.0,276632.0
233,77253.0,258978.0,276571.0
233,77226.0,258873.0,276415.0
233,77285.0,259037.0,276585.0
233,77345.0,259141.0,276727.0
233,77342.0,259074.0,276666.0
234,77277.0,258903.0,276503.0
234,77196.0,258759.0,276349.0
234,77116.0,258556.0,276134.0
234,77038.0,258372.0,275941.0
234,76993.0,258367.0,275983.0
234,76958.0,258350.0,276025.0
234,76934.0,258371.0,276047.0
234,76919.0,258397.0,276088.0
234,76913.0,258444.0,276147.0
234,76914.0,258462.0,276171.0
234,76925.0,258502.0,276221.0
234,76946.0,258572.0,276291.0
234,76956.0,258578.0,276301.0
234,76975.0,258610.0,276321.0
234,77017.0,258713.0,276424.0
234,77074.0,258818.0,276551.0
234,77136.0,258931.0,276669.0
234,77182.0,259026.0,276759.0
234,77241.0,259114.0,276842.0
234,77291.0,259209.0,276906.0
234,77333.0,259264.0,276959.0
234,77326.0,259177.0,276895.0
234,77268.0,259030.0,276780.0
234,77234.0,259024.0,276812.0
234,77220.0,259096.0,276958.0
235,77200.0,259188.0,277136.0
235,77191.0,259253.0,277257.0
235,77180.0,259318.0,277369.0
235,77174.0,259408.0,277481.0
235,77189.0,259477.0,277585.0
235,77188.0,259536.0,277655.0
235,77178.0,259544.0,277662.0
235,77159.0,259518.0,277620.0
235,77149.0,259500.0,277566.0
235,77113.0,259350.0,277390.0
235,77127.0,259414.0,277484.0
235,77132.0,259380.0,277429.0
235,77108.0,259281.0,277276.0
235,77057.0,259123.0,277038.0
235,77037.0,259054.0,276894.0
235,77046.0,259026.0,276823.0
235,77052.0,258979.0,276726.0
235,77081.0,258975.0,276709.0
235,77028.0,258791.0,276485.0
235,76890.0,258388.0,276007.0
235,76663.0,257803.0,275295.0
235,76422.0,257240.0,274597.0
235,76244.0,256855.0,274116.0
235,76169.0,256775.0,274066.0
235,76081.0,256646.0,273924.0
236,76054.0,256661.0,273957.0
236,76043.0,256703.0,274027.0
236,76055.0,256787.0,274150.0
236,76037.0,256866.0,274222.0
236,75938.0,256655.0,273944.0
236,75846.0,256423.0,273601.0
236,75776.0,256209.0,273299.0
236,75707.0,255991.0,272978.0
236,75554.0,255516.0,272325.0
236,75470.0,255236.0,271928.0
236,75415.0,255083.0,271694.0
236,75318.0,254860.0,271332.0
236,75198.0,254511.0,270824.0
236,74978.0,253839.0,269883.0
236,74838.0,253362.0,269214.0
236,74795.0,253152.0,268906.0
236,74815.0,253116.0,268885.0
236,74940.0,253455.0,269396.0
236,75329.0,254577.0,271011.0
236,75886.0,256291.0,273394.0
236,76277.0,257584.0,275182.0
236,76502.0,258345.0,276267.0
236,76436.0,258282.0,276169.0
236,76289.0,257927.0,275690.0
236,76165.0,257556.0,275190.0
237,76132.0,257466.0,275070.0
237,76293.0,257967.0,275719.0
237,76378.0,258222.0,276052.0
237,76416.0,258306.0,276147.0
237,76489.0,258478.0,276354.0
237,76556.0,258638.0,276521.0
237,76599.0,258684.0,276576.0
237,76623.0,258687.0,276556.0
237,76645.0,258685.0,276521.0
237,76683.0,258739.0,276552.0
237,76734.0,258807.0,276615.0
237,76769.0,258830.0,276603.0
237,76789.0,258814.0,276525.0
237,76804.0,258764.0,276418.0
237,76787.0,258630.0,276221.0
237,76684.0,258296.0,275784.0
237,76538.0,257933.0,275331.0
237,76442.0,257703.0,275067.0
237,76369.0,257579.0,274926.0
237,76332.0,257542.0,274930.0
237,76288.0,257525.0,274923.0
237,76282.0,257577.0,275007.0
237,76311.0,257731.0,275211.0
237,76325.0,257810.0,275338.0
237,76340.0,257903.0,275454.0
238,76331.0,257905.0,275449.0
238,76345.0,257926.0,275488.0
238,76347.0,257945.0,275495.0
238,76362.0,257974.0,275531.0
238,76396.0,258039.0,275600.0
238,76417.0,258079.0,275632.0
238,76444.0,258118.0,275666.0
238,76479.0,258198.0,275730.0
238,76525.0,258274.0,275822.0
238,76580.0,258364.0,275894.0
238,76641.0,258472.0,276009.0
238,76676.0,258508.0,276058.0
238,76663.0,258457.0,276025.0
238,76634.0,258423.0,276011.0
238,76624.0,258444.0,276066.0
238,76605.0,258446.0,276101.0
238,76584.0,258451.0,276128.0
238,76597.0,258533.0,276237.0
238,76623.0,258647.0,276422.0
238,76664.0,258772.0,276582.0
238,76730.0,258965.0,276829.0
238,76824.0,259217.0,277181.0
238,76890.0,259405.0,277431.0
238,76941.0,259533.0,277574.0
238,76973.0,259603.0,277630.0
239,76980.0,259605.0,277595.0
239,76923.0,259395.0,277298.0
239,76835.0,259106.0,276862.0
239,76764.0,258861.0,276500.0
239,76721.0,258677.0,276205.0
239,76716.0,258618.0,276085.0
239,76828.0,258838.0,276327.0
239,77080.0,259466.0,277082.0
239,77111.0,259480.0,277075.0
239,76985.0,259057.0,276549.0
239,76843.0,258625.0,276031.0
239,76760.0,258407.0,275791.0
239,76715.0,258312.0,275686.0
239,76671.0,258255.0,275616.0
239,76636.0,258230.0,275600.0
239,76630.0,258280.0,275666.0
239,76641.0,258358.0,275744.0
239,76641.0,258376.0,275770.0
239,76650.0,258418.0,275796.0
239,76663.0,258428.0,275807.0
239,76675.0,258440.0,275803.0
239,76691.0,258452.0,275789.0
239,76699.0,258446.0,275738.0
239,76715.0,258440.0,275722.0
239,76737.0,258429.0,275696.0
240,76756.0,258442.0,275660.0
240,76780.0,258437.0,275633.0
240,76811.0,258463.0,275621.0
240,76849.0,258490.0,275631.0
240,76885.0,258518.0,275652.0
240,76911.0,258511.0,275602.0
240,76871.0,258333.0,275400.0
240,76811.0,258187.0,275242.0
240,76771.0,258105.0,275156.0
240,76735.0,258046.0,275101.0
240,76700.0,258008.0,275073.0
240,76680.0,258005.0,275077.0
240,76679.0,258052.0,275119.0
240,76685.0,258076.0,275139.0
240,76690.0,258071.0,275145.0
240,76693.0,258097.0,275165.0
240,76705.0,258109.0,275184.0
240,76724.0,258148.0,275203.0
240,76750.0,258194.0,275226.0
240,76777.0,258228.0,275242.0
240,76805.0,258259.0,275254.0
240,76842.0,258275.0,275271.0
240,76874.0,258312.0,275293.0
240,76909.0,258364.0,275311.0
240,76944.0,258382.0,275298.0
241,76981.0,258400.0,275301.0
241,77015.0,258434.0,275291.0
241,77056.0,258487.0,275311.0
241,77083.0,258467.0,275288.0
241,77068.0,258359.0,275183.0
241,77014.0,258227.0,275018.0
241,76974.0,258140.0,274929.0
241,76942.0,258104.0,274897.0
241,76914.0,258062.0,274853.0
241,76892.0,258039.0,274831.0
241,76891.0,258064.0,274853.0
241,76896.0,258070.0,274860.0
241,76899.0,258077.0,274871.0
241,76908.0,258108.0,274893.0
241,76916.0,258094.0,274878.0
241,76925.0,258121.0,274874.0
241,76944.0,258141.0,274888.0
241,76960.0,258151.0,274885.0
241,76984.0,258169.0,274875.0
241,77006.0,258182.0,274862.0
241,77035.0,258202.0,274873.0
241,77066.0,258227.0,274883.0
241,77097.0,258264.0,274898.0
241,77134.0,258308.0,274918.0
241,77179.0,258352.0,274967.0
242,77208.0,258376.0,274968.0
242,77191.0,258264.0,274872.0
242,77137.0,258130.0,274735.0
242,77087.0,258063.0,274662.0
242,77058.0,258034.0,274659.0
242,77019.0,258012.0,274631.0
242,76986.0,257994.0,274621.0
242,76976.0,258006.0,274637.0
242,76970.0,258030.0,274659.0
242,76960.0,258030.0,274659.0
242,76958.0,258044.0,274685.0
242,76952.0,258040.0,274677.0
242,76958.0,258041.0,274677.0
242,76964.0,258059.0,274664.0
242,76973.0,258074.0,274650.0
242,76988.0,258071.0,274650.0
242,77002.0,258081.0,274654.0
242,77025.0,258105.0,274650.0
242,77046.0,258118.0,274637.0
242,77067.0,258129.0,274642.0
242,77087.0,258144.0,274615.0
242,77110.0,258148.0,274608.0
242,77143.0,258179.0,274608.0
242,77138.0,258092.0,274536.0
242,77060.0,257856.0,274271.0
243,77000.0,257717.0,274179.0
243,76934.0,257646.0,274148.0
243,76883.0,257622.0,274153.0
243,76840.0,257622.0,274213.0
243,76789.0,257609.0,274204.0
243,76796.0,257681.0,274343.0
243,76828.0,257871.0,274607.0
243,76791.0,257898.0,274638.0
243,76432.0,256590.0,272960.0
243,76500.0,256057.0,272370.0
243,76833.0,257021.0,273625.0
243,77379.0,258788.0,275894.0
243,77634.0,259772.0,277100.0
243,77700.0,260097.0,277475.0
243,77679.0,260088.0,277473.0
243,77516.0,259691.0,276889.0
243,77388.0,259363.0,276410.0
243,77352.0,259225.0,276191.0
243,77340.0,259116.0,276009.0
243,77354.0,259065.0,275909.0
243,77417.0,259198.0,276067.0
243,77457.0,259315.0,276212.0
243,77395.0,259158.0,276019.0
243,77280.0,258861.0,275701.0
243,77186.0,258626.0,275468.0
244,77109.0,258546.0,275413.0
244,77054.0,258540.0,275443.0
244,77010.0,258553.0,275484.0
244,76982.0,258585.0,275558.0
244,76970.0,258655.0,275641.0
244,76940.0,258601.0,275593.0
244,76861.0,258366.0,275294.0
244,76815.0,258185.0,275101.0
244,76809.0,258189.0,275111.0
244,76829.0,258247.0,275210.0
244,76844.0,258314.0,275286.0
244,76885.0,258472.0,275448.0
244,76937.0,258648.0,275655.0
244,76862.0,258482.0,275387.0
244,76806.0,258316.0,275131.0
244,76837.0,258357.0,275176.0
244,76921.0,258516.0,275343.0
244,77034.0,258734.0,275622.0
244,77121.0,258882.0,275798.0
244,77203.0,259019.0,275939.0
244,77248.0,259077.0,276006.0
244,77211.0,258940.0,275878.0
244,77121.0,258758.0,275714.0
244,77052.0,258690.0,275694.0
244,77000.0,258707.0,275776.0
245,76940.0,258720.0,275841.0
245,76864.0,258662.0,275817.0
245,76818.0,258681.0,275879.0
245,76807.0,258740.0,275965.0
245,76796.0,258776.0,276034.0
245,76793.0,258814.0,276086.0
245,76793.0,258848.0,276144.0
245,76783.0,258860.0,276141.0
245,76779.0,258816.0,276094.0
245,76791.0,258846.0,276109.0
245,76813.0,258870.0,276142.0
245,76827.0,258878.0,276131.0
245,76837.0,258875.0,276088.0
245,76855.0,258860.0,276047.0
245,76892.0,258903.0,276087.0
245,76961.0,259040.0,276242.0
245,77038.0,259187.0,276411.0
245,77082.0,259259.0,276465.0
245,77121.0,259289.0,276465.0
245,77141.0,259277.0,276419.0
245,77102.0,259126.0,276242.0
245,77002.0,258872.0,275957.0
245,76911.0,258723.0,275839.0
245,76850.0,258677.0,275844.0
245,76781.0,258629.0,275792.0
246,76739.0,258639.0,275842.0
246,76739.0,258727.0,276003.0
246,76764.0,258867.0,276161.0
246,76763.0,258907.0,276219.0
246,76747.0,258899.0,276240.0
246,76727.0,258848.0,276156.0
246,76712.0,258826.0,276092.0
246,76727.0,258851.0,276114.0
246,76777.0,258972.0,276247.0
246,76855.0,259143.0,276466.0
246,76924.0,259296.0,276653.0
246,76988.0,259385.0,276760.0
246,77041.0,259475.0,276843.0
246,77081.0,259524.0,276883.0
246,77104.0,259500.0,276814.0
246,77114.0,259453.0,276694.0
246,77129.0,259394.0,276593.0
246,77148.0,259368.0,276541.0
246,77187.0,259416.0,276613.0
246,77122.0,259224.0,276422.0
246,77075.0,259271.0,276516.0
246,77051.0,259417.0,276705.0
246,77025.0,259496.0,276868.0
246,76960.0,259432.0,276767.0
246,76958.0,259497.0,276897.0
247,77005.0,259662.0,277119.0
247,76971.0,259638.0,277052.0
247,76961.0,259628.0,277057.0
247,76969.0,259653.0,277102.0
247,76931.0,259531.0,276949.0
247,76935.0,259520.0,276912.0
247,76997.0,259674.0,277093.0
247,77029.0,259733.0,277162.0
247,77042.0,259742.0,277156.0
247,77075.0,259745.0,277158.0
247,77083.0,259698.0,277083.0
247,77022.0,259533.0,276803.0
247,77035.0,259477.0,276693.0
247,77067.0,259457.0,276675.0
247,77152.0,259642.0,276983.0
247,77227.0,259932.0,277451.0
247,77233.0,260158.0,277806.0
247,77155.0,260140.0,277790.0
247,77080.0,260069.0,277734.0
247,76922.0,259826.0,277412.0
247,76778.0,259475.0,276977.0
247,76731.0,259373.0,276852.0
247,76679.0,259302.0,276745.0
247,76646.0,259249.0,276670.0
247,76625.0,259228.0,276646.0
248,76627.0,259264.0,276687.0
248,76683.0,259432.0,276909.0
248,76690.0,259456.0,276930.0
248,76655.0,259270.0,276699.0
248,76672.0,259255.0,276700.0
248,76718.0,259264.0,276721.0
248,76818.0,259531.0,277064.0
248,76688.0,259119.0,276500.0
248,76449.0,258298.0,275370.0
248,75642.0,256040.0,272246.0
248,74830.0,253633.0,269088.0
248,73806.0,250846.0,265345.0
248,72671.0,247868.0,261314.0
248,71991.0,246101.0,258966.0
248,71706.0,245418.0,258084.0
248,71787.0,245677.0,258518.0
248,71968.0,246165.0,259238.0
248,72141.0,246640.0,259911.0
248,72564.0,247789.0,261481.0
248,72987.0,248926.0,263052.0
248,73474.0,250219.0,264833.0
248,73806.0,251140.0,266052.0
248,74021.0,251746.0,266820.0
248,74268.0,252426.0,267699.0
248,74587.0,253272.0,268853.0
249,75105.0,254651.0,270713.0
249,75673.0,256207.0,272783.0
249,76077.0,257363.0,274274.0
249,76393.0,258222.0,275374.0
249,76588.0,258777.0,276042.0
249,76596.0,258749.0,275936.0
249,76546.0,258516.0,275638.0
249,76484.0,258240.0,275347.0
249,76387.0,258011.0,275062.0
249,76360.0,258058.0,275135.0
249,76359.0,258171.0,275304.0
249,76360.0,258256.0,275455.0
249,76340.0,258290.0,275486.0
249,76343.0,258328.0,275530.0
249,76331.0,258318.0,275499.0
249,76321.0,258287.0,275444.0
249,76344.0,258320.0,275483.0
249,76314.0,258167.0,275256.0
249,76268.0,257938.0,274941.0
249,76383.0,258212.0,275330.0
249,76475.0,258441.0,275625.0
249,76497.0,258459.0,275611.0
249,76513.0,258476.0,275577.0
249,76517.0,258410.0,275467.0
249,76575.0,258500.0,275544.0
250,76708.0,258781.0,275875.0
250,76812.0,259003.0,276128.0
250,76915.0,259203.0,276386.0
250,76937.0,259255.0,276486.0
250,76941.0,259309.0,276586.0
250,76931.0,259358.0,276654.0
250,76895.0,259306.0,276607.0
250,76887.0,259336.0,276669.0
250,76955.0,259540.0,276942.0
250,76959.0,259564.0,276985.0
250,76924.0,259474.0,276849.0
250,76893.0,259373.0,276686.0
250,76885.0,259305.0,276578.0
250,76916.0,259384.0,276657.0
250,76940.0,259447.0,276692.0
250,76963.0,259457.0,276695.0
250,76987.0,259475.0,276704.0
250,77019.0,259505.0,276716.0
250,77060.0,259544.0,276752.0
250,77090.0,259578.0,276733.0
250,77135.0,259626.0,276775.0
250,77177.0,259691.0,276827.0
250,77227.0,259741.0,276863.0
250,77279.0,259807.0,276941.0
250,77287.0,259772.0,276888.0
251,77241.0,259627.0,276736.0
251,77204.0,259554.0,276663.0
251,77171.0,259524.0,276643.0
251,77147.0,259503.0,276638.0
251,77122.0,259483.0,276624.0
251,77104.0,259486.0,276603.0
251,77111.0,259520.0,276637.0
251,77130.0,259551.0,276660.0
251,77142.0,259566.0,276687.0
251,77143.0,259564.0,276648.0
251,77130.0,259509.0,276537.0
251,77100.0,259384.0,276350.0
251,77101.0,259333.0,276249.0
251,77096.0,259266.0,276142.0
251,77070.0,259155.0,275964.0
251,77061.0,259055.0,275788.0
251,77054.0,258926.0,275613.0
251,77049.0,258840.0,275460.0
251,77055.0,258780.0,275352.0
251,77051.0,258684.0,275220.0
251,76977.0,258441.0,274917.0
251,76889.0,258203.0,274648.0
251,76830.0,258101.0,274528.0
251,76790.0,258048.0,274480.0
251,76740.0,257984.0,274405.0
252,76701.0,257951.0,274346.0
252,76685.0,257940.0,274342.0
252,76679.0,257947.0,274342.0
252,76682.0,257947.0,274330.0
252,76693.0,257968.0,274333.0
252,76703.0,257968.0,274332.0
252,76717.0,257989.0,274342.0
252,76737.0,258006.0,274342.0
252,76753.0,258016.0,274327.0
252,76774.0,258013.0,274310.0
252,76801.0,258032.0,274313.0
252,76827.0,258044.0,274296.0
252,76855.0,258050.0,274282.0
252,76888.0,258079.0,274299.0
252,76925.0,258127.0,274324.0
252,76964.0,258163.0,274362.0
252,76970.0,258102.0,274312.0
252,76913.0,257981.0,274192.0
252,76861.0,257867.0,274071.0
252,76811.0,257777.0,273974.0
252,76768.0,257733.0,273939.0
252,76742.0,257725.0,273964.0
252,76724.0,257742.0,273981.0
252,76728.0,257796.0,274032.0
252,76753.0,257877.0,274122.0
253,76770.0,257945.0,274217.0
253,76788.0,258015.0,274293.0
253,76813.0,258074.0,274349.0
253,76837.0,258130.0,274392.0
253,76834.0,258097.0,274340.0
253,76853.0,258086.0,274315.0
253,76869.0,258070.0,274288.0
253,76879.0,258047.0,274242.0
253,76898.0,258052.0,274217.0
253,76936.0,258109.0,274261.0
253,76973.0,258142.0,274285.0
253,76962.0,258057.0,274206.0
253,76896.0,257889.0,274065.0
253,76825.0,257776.0,273941.0
253,76780.0,257741.0,273945.0
253,76744.0,257743.0,273965.0
253,76690.0,257705.0,273938.0
253,76658.0,257696.0,273945.0
253,76647.0,257748.0,274010.0
253,76637.0,257756.0,274016.0
253,76633.0,257752.0,274067.0
253,76635.0,257799.0,274100.0
253,76648.0,257834.0,274150.0
253,76670.0,257884.0,274214.0
253,76689.0,257921.0,274246.0
254,76716.0,257981.0,274309.0
254,76741.0,258018.0,274331.0
254,76769.0,258036.0,274357.0
254,76792.0,258085.0,274392.0
254,76806.0,258056.0,274340.0
254,76840.0,258097.0,274364.0
254,76877.0,258147.0,274417.0
254,76856.0,258046.0,274315.0
254,76771.0,257849.0,274111.0
254,76686.0,257694.0,273983.0
254,76616.0,257622.0,273932.0
254,76539.0,257569.0,273905.0
254,76470.0,257516.0,273890.0
254,76412.0,257486.0,273873.0
254,76385.0,257491.0,273912.0
254,76368.0,257497.0,273926.0
254,76349.0,257496.0,273933.0
254,76342.0,257511.0,273968.0
254,76342.0,257537.0,273995.0
254,76345.0,257552.0,274022.0
254,76358.0,257571.0,274046.0
254,76377.0,257606.0,274096.0
254,76410.0,257670.0,274148.0
254,76448.0,257732.0,274228.0
254,76480.0,257803.0,274277.0
255,76509.0,257814.0,274285.0
255,76541.0,257824.0,274279.0
255,76587.0,257879.0,274340.0
255,76639.0,257988.0,274459.0
255,76695.0,258090.0,274572.0
255,76709.0,258071.0,274578.0
255,76640.0,257909.0,274415.0
255,76553.0,257788.0,274306.0
255,76488.0,257735.0,274301.0
255,76419.0,257713.0,274316.0
255,76353.0,257675.0,274314.0
255,76297.0,257656.0,274332.0
255,76273.0,257695.0,274380.0
255,76267.0,257717.0,274448.0
255,76253.0,257736.0,274489.0
255,76253.0,257758.0,274519.0
255,76251.0,257783.0,274551.0
255,76255.0,257797.0,274574.0
255,76262.0,257808.0,274563.0
255,76275.0,257816.0,274554.0
255,76303.0,257842.0,274584.0
255,76327.0,257875.0,274608.0
255,76369.0,257929.0,274677.0
255,76405.0,257970.0,274706.0
255,76438.0,258012.0,274732.0
0,76473.0,258046.0,274738.0
0,76511.0,258087.0,274742.0
0,76552.0,258112.0,274760.0
0,76597.0,258163.0,274797.0
0,76642.0,258209.0,274839.0
0,76652.0,258162.0,274807.0
0,76591.0,258009.0,274644.0
0,76509.0,257880.0,274524.0
0,76443.0,257810.0,274488.0
0,76382.0,257777.0,274479.0
0,76320.0,257722.0,274447.0
0,76269.0,257706.0,274441.0
0,76251.0,257727.0,274487.0
0,76236.0,257748.0,274499.0
0,76231.0,257749.0,274514.0
0,76228.0,257751.0,274533.0
0,76231.0,257777.0,274550.0
0,76239.0,257794.0,274571.0
0,76257.0,257819.0,274590.0
0,76277.0,257842.0,274603.0
0,76299.0,257869.0,274616.0
0,76331.0,257907.0,274653.0
0,76355.0,257923.0,274659.0
0,76387.0,257949.0,274671.0
0,76417.0,257977.0,274687.0
1,76454.0,258001.0,274699.0
1,76489.0,258058.0,274721.0
1,76538.0,258115.0,274769.0
1,76566.0,258109.0,274759.0
1,76532.0,257992.0,274650.0
1,76452.0,257838.0,274495.0
1,76388.0,257781.0,274456.0
1,76332.0,257754.0,274459.0
1,76279.0,257716.0,274442.0
1,76239.0,257705.0,274464.0
1,76224.0,257732.0,274504.0
1,76220.0,257776.0,274545.0
1,76220.0,257799.0,274569.0
1,76221.0,257809.0,274601.0
1,76229.0,257831.0,274621.0
1,76249.0,257892.0,274679.0
1,76275.0,257930.0,274728.0
1,76296.0,257979.0,274760.0
1,76325.0,258006.0,274786.0
1,76351.0,258036.0,274802.0
1,76377.0,258051.0,274802.0
1,76407.0,258085.0,274806.0
1,76444.0,258115.0,274823.0
1,76474.0,258154.0,274823.0
1,76516.0,258188.0,274870.0
2,76565.0,258250.0,274933.0
2,76619.0,258333.0,275007.0
2,76643.0,258331.0,275004.0
2,76594.0,258177.0,274847.0
